# spectrum  Type     U-V    B-V    V-R    V-I    V-J    V-K
# ---------------------------------------------------------
# bpgs_66  M1.5V    2.65   1.45   1.07   2.14   3.14   4.01
#
# lambda (Angstroms)  flux (phot/lambda)
#----------------------------------------------------------
PHOTLAM
      1985.67    0.0459158
      1997.48     0.138082
      2009.29     0.249930
      2021.10     0.202121
      2032.91     0.200657
      2044.72     0.260364
      2056.53     0.329377
      2068.34     0.458152
      2080.15     0.555644
      2091.96     0.601463
      2103.77     0.391307
      2115.58     0.195530
      2127.39     0.516038
      2139.20     0.660184
      2151.01     0.202888
      2162.82     0.155378
      2174.63     0.210572
      2186.44     0.101974
      2198.25     0.181247
      2210.06     0.268003
      2221.87    0.0901852
      2233.68    0.0218175
      2245.49     0.238957
      2257.30     0.583052
      2269.11     0.581404
      2280.92     0.590477
      2292.73     0.243063
      2304.55     0.147077
      2316.36     0.267537
      2328.17     0.817681
      2339.98     0.895606
      2351.79     0.394625
      2363.60     0.650850
      2375.41     0.962630
      2387.22     0.890940
      2399.03     0.652211
      2410.84     0.226799
      2422.65     0.675449
      2434.46     0.705166
      2446.27     0.630751
      2458.08     0.989256
      2469.89      1.08804
      2481.70      1.08838
      2493.51     0.844816
      2505.32     0.928219
      2517.13     0.929717
      2528.94     0.953590
      2540.75      1.45915
      2552.56      1.48600
      2564.37      1.57071
      2576.18      1.28830
      2587.99     0.982068
      2599.80      1.18463
      2611.61      1.26202
      2623.42      2.04467
      2635.23      2.62508
      2647.04      3.61265
      2658.85      3.46984
      2670.66      3.71266
      2682.47      3.62476
      2694.28      3.95377
      2706.09      3.38870
      2717.90      3.40229
      2729.71      3.05913
      2741.52      3.61893
      2753.33      4.21034
      2765.14      5.14890
      2776.95      5.66564
      2788.76      8.39417
      2800.58      21.9076
      2812.39      9.65776
      2824.20      5.18525
      2836.01      5.68026
      2847.82      7.02745
      2859.63      7.26367
      2871.44      7.80014
      2883.25      7.65021
      2895.06      7.65067
      2906.87      8.28614
      2918.68      10.6565
      2930.49      11.3921
      2942.30      10.4823
      2954.11      8.59924
      2965.92      8.39072
      2977.73      8.19622
      2989.54      11.0595
      3001.35      11.0238
      3013.16      10.5169
      3024.97      10.0419
      3036.78      14.6132
      3048.59      13.1734
      3060.40      10.3463
      3072.21      11.3455
      3084.02      14.4990
      3095.83      15.1643
      3107.64      20.3188
      3119.45      20.0553
      3131.26      15.4654
      3143.07      12.9235
      3154.88      20.7531
      3166.69      14.6765
      3178.50      17.1991
      3190.31      21.9258
      3202.12      25.6655
      3213.93      24.6466
      3225.74      25.9701
      3237.55      29.7490
      3249.36      27.1535
      3261.17      24.0261
      3272.99      27.2230
      3284.80      29.9116
      3296.61      31.3664
      3308.42      34.6459
      3320.23      37.9503
      3332.04      38.7050
      3343.85      40.0384
      3355.66      38.2716
      3367.47      38.1101
      3379.28      42.7948
      3391.09      47.4520
      3402.90      51.0150
      3414.71      48.9292
      3426.52      47.7984
      3438.33      43.3416
      3450.14      47.1335
      3461.95      50.5370
      3473.76      51.6641
      3485.57      53.8541
      3497.38      59.2467
      3509.19      62.9530
      3521.00      61.5339
      3532.81      68.3099
      3544.62      78.5641
      3556.43      68.0727
      3568.24      56.9149
      3580.05      53.5400
      3591.86      56.7285
      3603.67      61.8202
      3615.48      65.5564
      3627.29      69.1194
      3639.10      66.1094
      3650.91      72.6130
      3662.72      79.3086
      3674.53      76.2903
      3686.34      78.6605
      3698.15      75.7067
      3709.96      66.6838
      3721.77      61.0776
      3733.58      58.2857
      3745.39      61.0131
      3757.20      72.9495
      3769.01      83.5409
      3780.82      87.9070
      3792.64      90.1757
      3804.45      89.8913
      3816.26      77.6849
      3828.07      71.6619
      3839.88      79.1981
      3851.69      81.1538
      3863.50      83.2690
      3875.31      88.2913
      3887.12      87.0078
      3898.93      95.5875
      3910.74      99.6545
      3922.55      91.3764
      3934.36      91.2347
      3946.17      98.1067
      3957.98      99.8353
      3969.79      115.984
      3981.60      150.264
      3993.41      165.302
      4005.22      179.729
      4017.03      183.703
      4028.84      179.641
      4040.65      182.146
      4052.46      188.972
      4064.27      191.931
      4076.08      195.862
      4087.89      200.892
      4099.70      196.022
      4111.51      201.342
      4123.32      206.305
      4135.13      205.221
      4146.94      213.023
      4158.75      215.375
      4170.56      216.336
      4182.37      215.109
      4194.18      214.650
      4205.99      192.234
      4217.80      149.126
      4229.61      141.969
      4241.42      172.580
      4253.23      176.442
      4265.04      187.359
      4276.85      190.181
      4288.66      196.282
      4300.48      201.489
      4312.29      225.560
      4324.10      243.713
      4335.91      262.043
      4347.72      268.107
      4359.53      279.800
      4371.34      284.440
      4383.15      281.691
      4394.96      293.183
      4406.77      310.056
      4418.58      329.039
      4430.39      336.142
      4442.20      350.061
      4454.01      358.685
      4465.82      398.553
      4477.63      428.790
      4489.44      444.674
      4501.25      457.438
      4513.06      458.914
      4524.87      451.082
      4536.68      460.854
      4548.49      498.543
      4560.30      535.408
      4572.11      544.587
      4583.92      543.017
      4595.73      556.589
      4607.54      575.508
      4619.35      570.802
      4631.16      566.849
      4642.97      565.140
      4654.78      577.294
      4666.59      568.425
      4678.40      569.275
      4690.21      587.196
      4702.02      591.881
      4713.83      590.514
      4725.64      589.856
      4737.45      582.509
      4749.26      566.940
      4761.07      516.048
      4772.89      486.500
      4784.70      515.669
      4796.51      542.747
      4808.32      545.136
      4820.13      547.994
      4831.94      550.598
      4843.75      564.994
      4855.56      578.238
      4867.37      589.638
      4879.18      607.001
      4890.99      632.317
      4902.80      656.293
      4914.61      660.912
      4926.42      679.827
      4938.23      683.373
      4950.04      635.375
      4961.85      588.139
      4973.66      593.848
      4985.47      591.269
      4997.28      574.826
      5009.09      564.803
      5020.90      581.141
      5032.71      584.280
      5044.52      590.653
      5056.33      578.888
      5068.14      570.717
      5079.95      577.526
      5091.76      578.190
      5103.57      570.398
      5115.38      586.933
      5127.19      592.672
      5139.00      601.265
      5150.81      605.948
      5162.62      560.394
      5174.43      528.069
      5186.24      595.370
      5198.05      607.202
      5209.86      658.622
      5221.67      758.923
      5233.48      782.673
      5245.29      788.247
      5257.11      759.898
      5268.92      765.946
      5280.73      838.448
      5292.54      855.407
      5304.35      876.498
      5316.16      871.898
      5327.97      855.681
      5339.78      885.249
      5351.59      935.698
      5363.40      960.017
      5375.21      998.800
      5387.02      1005.59
      5398.83      979.184
      5410.64      1017.61
      5422.45      1069.95
      5434.26      1049.25
      5446.07      1004.82
      5457.88      977.631
      5469.69      1003.14
      5481.50      1027.51
      5493.31      1037.13
      5505.12      1013.96
      5516.93      1028.50
      5528.74      1061.88
      5540.55      1077.10
      5552.36      1094.77
      5564.17      1100.57
      5575.98      1100.66
      5587.79      1073.08
      5599.60      1049.13
      5611.41      1077.59
      5623.22      1101.88
      5635.03      1117.54
      5646.84      1152.16
      5658.65      1180.19
      5670.46      1179.61
      5682.27      1207.37
      5694.08      1227.45
      5705.89      1246.26
      5717.70      1275.03
      5729.51      1301.59
      5741.32      1357.62
      5753.13      1372.90
      5764.94      1381.34
      5776.75      1387.98
      5788.57      1397.19
      5800.38      1404.97
      5812.19      1398.98
      5824.00      1384.69
      5835.81      1358.76
      5847.62      1310.08
      5859.43      1240.79
      5871.24      1120.82
      5883.05      1029.60
      5894.86      1031.17
      5906.67      1097.60
      5918.48      1206.11
      5930.29      1254.92
      5942.10      1284.10
      5953.91      1303.11
      5965.72      1333.21
      5977.53      1375.00
      5989.34      1403.00
      6001.15      1429.29
      6012.96      1469.96
      6024.77      1504.52
      6036.58      1528.31
      6048.39      1553.01
      6060.20      1575.71
      6072.01      1584.67
      6083.82      1589.12
      6095.63      1588.98
      6107.44      1592.07
      6119.25      1593.07
      6131.06      1562.93
      6142.87      1519.05
      6154.68      1457.87
      6166.49      1401.28
      6178.30      1351.18
      6190.11      1322.08
      6201.92      1296.39
      6213.73      1262.44
      6225.54      1250.01
      6237.35      1264.06
      6249.16      1305.01
      6260.97      1356.58
      6272.79      1410.80
      6284.60      1471.45
      6296.41      1541.08
      6308.22      1603.99
      6320.03      1660.73
      6331.84      1701.03
      6343.65      1721.78
      6355.46      1709.63
      6367.27      1694.95
      6379.08      1686.24
      6390.89      1734.85
      6402.70      1795.20
      6414.51      1851.89
      6426.32      1893.95
      6438.13      1924.05
      6449.94      1962.82
      6461.75      2000.70
      6473.56      2026.02
      6485.37      2055.79
      6497.18      2093.35
      6508.99      2150.82
      6520.80      2203.06
      6532.61      2195.49
      6544.42      2179.75
      6556.23      2163.45
      6568.04      2156.58
      6579.85      2154.47
      6591.66      2151.35
      6603.47      2140.15
      6615.28      2112.59
      6627.09      2081.34
      6638.90      2047.32
      6650.71      2008.23
      6662.52      1966.87
      6674.33      1922.49
      6686.14      1879.64
      6697.95      1838.72
      6709.76      1802.16
      6721.57      1770.03
      6733.38      1748.52
      6745.19      1737.37
      6757.00      1737.03
      6768.82      1722.70
      6780.63      1701.68
      6792.44      1677.07
      6804.25      1656.42
      6816.06      1643.29
      6827.87      1638.73
      6839.68      1636.23
      6851.49      1617.12
      6863.30      1607.19
      6875.11      1624.67
      6886.92      1678.42
      6898.73      1758.16
      6910.54      1839.84
      6922.35      1920.61
      6934.16      1997.58
      6945.97      2058.08
      6957.78      2101.47
      6969.59      2127.22
      6981.40      2150.61
      6993.21      2187.19
      7005.02      2242.14
      7016.83      2317.59
      7028.64      2355.79
      7040.45      2375.38
      7052.26      2383.97
      7064.07      2358.54
      7075.88      2277.60
      7087.69      2223.56
      7099.50      2185.58
      7111.31      2145.75
      7123.12      2107.34
      7134.93      2073.78
      7146.74      2094.33
      7158.55      2156.29
      7170.36      2214.42
      7182.17      2265.06
      7193.98      2296.81
      7205.79      2343.27
      7217.60      2405.63
      7229.41      2454.20
      7241.22      2502.05
      7253.03      2566.67
      7264.84      2634.66
      7276.65      2704.43
      7288.46      2764.68
      7300.28      2818.68
      7312.09      2864.34
      7323.90      2895.43
      7335.71      2902.78
      7347.52      2930.28
      7359.33      2970.86
      7371.14      3012.02
      7382.95      3048.99
      7394.76      3074.87
      7406.57      3099.01
      7418.38      3121.53
      7430.19      3137.59
      7442.00      3151.81
      7453.81      3165.19
      7465.62      3176.21
      7477.43      3185.64
      7489.24      3208.44
      7501.05      3231.32
      7512.86      3232.76
      7524.67      3241.70
      7536.48      3264.16
      7548.29      3255.56
      7560.10      3215.78
      7571.91      3084.69
      7583.72      2971.65
      7595.53      2926.67
      7607.34      3134.34
      7619.15      3453.26
      7630.96      3375.33
      7642.77      3231.69
      7654.58      3147.53
      7666.39      3028.28
      7678.20      2889.73
      7690.01      2906.54
      7701.82      2970.64
      7713.63      3036.40
      7725.44      3082.68
      7737.25      3104.93
      7749.06      3104.46
      7760.88      3104.00
      7772.69      3143.75
      7784.49      3179.09
      7796.31      3200.02
      7808.12      3212.56
      7819.93      3222.79
      7831.74      3242.85
      7843.55      3270.31
      7855.36      3308.29
      7867.17      3341.39
      7878.98      3370.98
      7890.79      3401.67
      7902.60      3427.42
      7914.41      3439.78
      7926.22      3470.99
      7938.03      3518.47
      7949.84      3544.25
      7961.65      3564.52
      7973.46      3587.68
      7985.27      3607.82
      7997.08      3623.52
      8008.89      3643.09
      8020.70      3668.02
      8032.51      3712.06
      8044.32      3750.47
      8056.13      3775.01
      8067.94      3783.03
      8079.75      3779.57
      8091.56      3762.10
      8103.37      3753.28
      8115.18      3769.04
      8126.99      3775.64
      8138.80      3770.70
      8150.61      3729.24
      8162.42      3678.89
      8174.23      3630.25
      8186.04      3611.23
      8197.85      3621.38
      8209.66      3639.28
      8221.47      3664.11
      8233.28      3701.91
      8245.10      3764.99
      8256.90      3850.74
      8268.71      3780.77
      8280.52      3666.40
      8292.34      3670.05
      8304.15      3689.56
      8315.96      3705.34
      8327.76      3698.09
      8339.58      3680.05
      8351.39      3682.10
      8363.20      3700.42
      8375.01      3745.63
      8386.82      3787.82
      8398.63      3817.76
      8410.44      3767.65
      8422.25      3718.78
      8434.06      3734.42
      8445.87      3734.60
      8457.68      3714.84
      8469.49      3699.14
      8481.30      3685.25
      8493.11      3672.87
      8504.92      3652.16
      8516.73      3620.85
      8528.54      3634.20
      8540.35      3669.33
      8552.16      3715.23
      8563.97      3747.51
      8575.78      3753.75
      8587.59      3763.65
      8599.40      3779.87
      8611.21      3821.22
      8623.02      3845.87
      8634.83      3816.85
      8646.64      3783.07
      8658.45      3753.44
      8670.26      3778.66
      8682.07      3814.19
      8693.88      3833.80
      8705.69      3842.91
      8717.50      3844.58
      8729.31      3874.50
      8741.12      3899.55
      8752.93      3865.74
      8764.74      3854.12
      8776.55      3881.71
      8788.37      3867.02
      8800.18      3838.56
      8811.99      3852.42
      8823.80      3874.45
      8835.61      3899.53
      8847.42      3925.96
      8859.23      3946.79
      8871.04      3928.23
      8882.85      3902.25
      8894.66      3881.18
      8906.47      3853.52
      8918.28      3822.06
      8930.09      3818.40
      8941.90      3820.98
      8953.71      3820.14
      8965.52      3832.18
      8977.33      3859.09
      8989.14      3866.24
      9000.95      3881.94
      9012.76      3964.21
      9024.57      4054.48
      9036.38      4140.55
      9048.19      4095.65
      9060.00      3990.41
      9071.81      3924.18
      9083.62      3904.38
      9095.43      3962.73
      9107.24      4013.57
      9119.05      4047.77
      9130.86      4006.21
      9142.67      3958.89
      9154.48      3940.46
      9166.29      3994.14
      9178.10      4104.09
      9189.91      4139.48
      9201.72      4138.29
      9213.53      4089.12
      9225.34      4050.38
      9237.15      4025.81
      9248.96      3950.14
      9260.78      3847.17
      9272.58      3713.23
      9284.40      3582.84
      9296.21      3464.71
      9308.02      3378.28
      9319.83      3341.12
      9331.64      3497.00
      9343.45      3615.97
      9355.26      3587.61
      9367.07      3644.37
      9378.88      3762.13
      9390.69      3852.75
      9402.50      3855.39
      9414.31      3641.61
      9426.12      3540.75
      9437.93      3563.96
      9449.74      3649.45
      9461.55      3720.53
      9473.36      3668.20
      9485.17      3621.36
      9496.98      3600.32
      9508.79      3647.63
      9520.60      3718.40
      9532.41      3762.47
      9544.22      3782.30
      9556.03      3770.51
      9567.84      3795.18
      9579.65      3834.93
      9591.46      3836.40
      9603.27      3848.42
      9615.08      3900.41
      9626.89      3907.43
      9638.70      3889.14
      9650.51      3953.41
      9662.32      4041.45
      9674.13      4134.09
      9685.94      4141.52
      9697.75      4067.78
      9709.56      4055.39
      9721.37      4063.67
      9733.18      4067.87
      9744.99      4081.24
      9756.80      4107.56
      9768.62      4136.24
      9780.43      4169.22
      9792.24      4218.38
      9804.04      4270.20
      9815.86      4323.83
      9827.67      4322.67
      9839.48      4290.99
      9851.29      4274.36
      9863.10      4246.40
      9874.91      4187.17
      9886.72      4137.76
      9898.53      4098.61
      9910.34      4067.37
      9922.15      4061.41
      9933.96      4123.86
      9945.77      4159.89
      9957.58      4162.19
      9969.39      4163.55
      9981.20      4168.48
      9993.01      4190.13
      10004.8      4205.20
      10016.6      4208.74
      10028.4      4212.31
      10040.3      4216.81
      10052.1      4228.96
      10063.9      4255.83
      10075.7      4307.67
      10087.5      4315.36
      10099.3      4295.29
      10111.1      4278.27
      10122.9      4259.88
      10134.7      4235.28
      10146.5      4249.82
      10158.4      4289.17
      10170.2      4253.67
      10182.0      4213.46
      10193.8      4228.56
      10205.6      4241.76
      10217.4      4245.02
      10229.2      4226.00
      10241.0      4205.15
      10252.8      4212.63
      10264.6      4205.44
      10276.5      4174.12
      10288.3      4181.21
      10300.1      4199.25
      10311.9      4168.93
      10323.7      4139.78
      10335.5      4130.00
      10347.3      4171.54
      10359.1      4235.07
      10370.9      4212.03
      10382.7      4181.74
      10394.6      4184.21
      10406.4      4214.47
      10418.2      4265.98
      10430.0      4294.91
      10441.8      4317.22
      10453.6      4341.66
      10465.4      4352.83
      10477.2      4348.58
      10489.0      4335.68
      10500.8      4321.53
      10512.7      4313.54
      10524.5      4333.95
      10536.3      4394.02
      10548.1      4395.03
      10559.9      4370.43
      10571.7      4382.85
      10583.5      4377.39
      10595.3      4322.31
      10607.1      4296.91
      10619.0      4293.15
      10630.8      4289.13
      10642.6      4285.52
      10654.4      4281.84
      10666.2      4278.03
      10678.0      4274.33
      10689.8      4270.53
      10701.6      4266.68
      10713.4      4263.09
      10725.2      4259.18
      10737.1      4255.69
      10748.9      4251.82
      10760.7      4248.06
      10772.5      4244.15
      10784.3      4240.59
      10796.1      4236.69
      10807.9      4231.46
      10819.7      4225.77
      10831.5      4219.86
      10843.3      4213.85
      10855.2      4208.08
      10867.0      4201.88
      10878.8      4196.37
      10890.6      4190.28
      10902.4      4184.29
      10914.2      4178.53
      10926.0      4172.46
      10937.8      4166.66
      10949.6      4160.75
      10961.4      4154.75
      10973.3      4149.10
      10985.1      4142.90
      10996.9      4137.30
      11008.7      4130.11
      11020.5      4122.94
      11032.3      4115.89
      11044.1      4108.51
      11055.9      4101.36
      11067.7      4094.05
      11079.6      4086.69
      11091.4      4079.64
      11103.2      4072.15
      11115.0      4064.99
      11126.8      4058.00
      11138.6      4050.56
      11150.4      4043.14
      11162.2      4036.15
      11174.0      4028.97
      11185.8      4021.50
      11197.7      4014.34
      11209.5      4006.78
      11221.3      3998.72
      11233.1      3990.93
      11244.9      3983.58
      11256.7      3975.58
      11268.5      3967.62
      11280.3      3960.04
      11292.1      3951.94
      11303.9      3944.62
      11315.8      3936.51
      11327.6      3928.87
      11339.4      3920.99
      11351.2      3913.36
      11363.0      3905.45
      11374.8      3897.70
      11386.6      3889.74
      11398.4      3882.16
      11410.2      3874.62
      11422.0      3866.77
      11433.9      3859.27
      11445.7      3851.77
      11457.5      3843.89
      11469.3      3836.60
      11481.1      3828.86
      11492.9      3821.26
      11504.7      3813.59
      11516.5      3805.92
      11528.3      3798.43
      11540.2      3790.61
      11552.0      3783.28
      11563.8      3775.53
      11575.6      3768.08
      11587.4      3760.19
      11599.2      3752.93
      11611.0      3745.86
      11622.8      3739.08
      11634.6      3732.22
      11646.4      3725.28
      11658.3      3718.56
      11670.1      3711.89
      11681.9      3704.83
      11693.7      3698.16
      11705.5      3691.20
      11717.3      3684.40
      11729.1      3677.67
      11740.9      3670.79
      11752.7      3663.86
      11764.5      3657.27
      11776.4      3650.31
      11788.2      3643.55
      11800.0      3636.87
      11811.8      3631.20
      11823.6      3625.62
      11835.4      3620.24
      11847.2      3614.69
      11859.0      3609.25
      11870.8      3603.84
      11882.6      3598.14
      11894.5      3592.91
      11906.3      3586.99
      11918.1      3581.92
      11929.9      3576.29
      11941.7      3570.80
      11953.5      3565.31
      11965.3      3559.78
      11977.1      3554.39
      11988.9      3548.83
      12000.7      3543.80
      12012.6      3539.58
      12024.4      3536.30
      12036.2      3532.52
      12048.0      3528.77
      12059.8      3524.92
      12071.6      3521.52
      12083.4      3517.85
      12095.2      3514.14
      12107.0      3510.37
      12118.9      3506.90
      12130.7      3503.30
      12142.5      3499.40
      12154.3      3495.63
      12166.1      3492.24
      12177.9      3488.35
      12189.7      3484.98
      12201.5      3481.58
      12213.3      3480.06
      12225.1      3478.82
      12237.0      3477.50
      12248.8      3476.28
      12260.6      3474.57
      12272.4      3473.57
      12284.2      3472.25
      12296.0      3470.67
      12307.8      3469.73
      12319.6      3468.04
      12331.4      3466.85
      12343.2      3465.39
      12355.1      3464.20
      12366.9      3462.90
      12378.7      3461.65
      12390.5      3460.30
      12402.3      3459.73
      12414.1      3462.16
      12425.9      3464.64
      12437.7      3467.06
      12449.5      3469.43
      12461.3      3471.95
      12473.2      3474.65
      12485.0      3476.83
      12496.8      3479.37
      12508.6      3481.81
      12520.4      3484.33
      12532.2      3486.82
      12544.0      3489.39
      12555.8      3491.84
      12567.6      3494.16
      12579.5      3496.73
      12591.3      3499.13
      12603.1      3500.97
      12614.9      3501.43
      12626.7      3501.83
      12638.5      3501.99
      12650.3      3502.26
      12662.1      3502.75
      12673.9      3502.85
      12685.7      3503.33
      12697.6      3503.46
      12709.4      3503.91
      12721.2      3504.14
      12733.0      3504.56
      12744.8      3504.81
      12756.6      3505.30
      12768.4      3505.46
      12780.2      3505.69
      12792.0      3506.05
      12803.8      3504.76
      12815.7      3500.96
      12827.5      3496.92
      12839.3      3492.91
      12851.1      3489.01
      12862.9      3484.94
      12874.7      3481.12
      12886.5      3476.87
      12898.3      3472.92
      12910.1      3469.04
      12921.9      3464.88
      12933.8      3461.00
      12945.6      3457.09
      12957.4      3452.90
      12969.2      3448.97
      12981.0      3444.94
      12992.8      3440.93
      13004.6      3434.66
      13016.4      3424.40
      13028.2      3414.57
      13040.1      3404.19
      13051.9      3394.31
      13063.7      3384.25
      13075.5      3373.98
      13087.3      3364.13
      13099.1      3353.95
      13110.9      3343.93
      13122.7      3333.78
      13134.5      3323.73
      13146.3      3313.59
      13158.2      3303.52
      13170.0      3293.37
      13181.8      3283.41
      13193.6      3273.33
      13205.4      3262.45
      13217.2      3250.86
      13229.0      3239.46
      13240.8      3227.68
      13252.6      3216.01
      13264.4      3204.51
      13276.3      3192.99
      13288.1      3181.14
      13299.9      3169.77
      13311.7      3158.16
      13323.5      3146.34
      13335.3      3135.01
      13347.1      3123.17
      13358.9      3111.72
      13370.7      3100.17
      13382.5      3088.58
      13394.4      3076.92
      13406.2      3068.50
      13418.0      3063.17
      13429.8      3057.71
      13441.6      3052.47
      13453.4      3047.08
      13465.2      3041.69
      13477.0      3036.40
      13488.8      3031.01
      13500.6      3025.43
      13512.5      3020.21
      13524.3      3014.88
      13536.1      3009.58
      13547.9      3003.96
      13559.7      2998.88
      13571.5      2993.32
      13583.3      2988.00
      13595.1      2982.61
      13606.9      2978.90
      13618.8      2976.19
      13630.6      2973.52
      13642.4      2970.87
      13654.2      2968.13
      13666.0      2965.58
      13677.8      2962.88
      13689.6      2960.11
      13701.4      2957.43
      13713.2      2954.83
      13725.0      2952.25
      13736.9      2949.44
      13748.7      2946.79
      13760.5      2944.14
      13772.3      2941.54
      13784.1      2938.71
      13795.9      2936.26
      13807.7      2933.96
      13819.5      2932.00
      13831.3      2930.17
      13843.1      2928.08
      13855.0      2926.40
      13866.8      2924.33
      13878.6      2922.39
      13890.4      2920.66
      13902.2      2918.59
      13914.0      2916.55
      13925.8      2914.74
      13937.6      2912.87
      13949.4      2910.79
      13961.2      2909.09
      13973.1      2907.03
      13984.9      2905.08
      13996.7      2903.44
      14008.5      2901.56
      14020.3      2900.32
      14032.1      2898.90
      14043.9      2897.61
      14055.7      2896.12
      14067.5      2894.68
      14079.4      2893.40
      14091.2      2892.17
      14103.0      2890.59
      14114.8      2889.31
      14126.6      2887.68
      14138.4      2886.62
      14150.2      2885.20
      14162.0      2883.65
      14173.8      2882.42
      14185.6      2880.94
      14197.5      2879.49
      14209.3      2878.57
      14221.1      2877.44
      14232.9      2876.43
      14244.7      2875.24
      14256.5      2874.37
      14268.3      2873.25
      14280.1      2872.37
      14291.9      2871.11
      14303.7      2870.15
      14315.6      2868.99
      14327.4      2868.26
      14339.2      2866.95
      14351.0      2865.90
      14362.8      2865.07
      14374.6      2863.87
      14386.4      2862.85
      14398.2      2861.84
      14410.0      2861.04
      14421.8      2860.16
      14433.7      2859.62
      14445.5      2858.71
      14457.3      2857.87
      14469.1      2857.29
      14480.9      2856.50
      14492.7      2855.55
      14504.5      2855.02
      14516.3      2854.03
      14528.1      2853.40
      14540.0      2852.71
      14551.8      2851.76
      14563.6      2851.23
      14575.4      2850.35
      14587.2      2849.59
      14599.0      2848.93
      14610.8      2848.84
      14622.6      2848.68
      14634.4      2848.81
      14646.2      2848.92
      14658.1      2848.88
      14669.9      2848.79
      14681.7      2849.13
      14693.5      2848.86
      14705.3      2849.01
      14717.1      2848.94
      14728.9      2849.04
      14740.7      2849.01
      14752.5      2849.14
      14764.3      2849.14
      14776.2      2849.03
      14788.0      2849.19
      14799.8      2849.26
      14811.6      2850.54
      14823.4      2851.65
      14835.2      2853.25
      14847.0      2854.19
      14858.8      2855.78
      14870.6      2856.93
      14882.4      2858.30
      14894.3      2859.82
      14906.1      2860.79
      14917.9      2862.28
      14929.7      2863.51
      14941.5      2864.80
      14953.3      2866.35
      14965.1      2867.40
      14976.9      2868.79
      14988.7      2870.14
      15000.5      2871.73
      15012.4      2873.76
      15024.2      2876.62
      15036.0      2878.80
      15047.8      2881.23
      15059.6      2884.00
      15071.4      2886.37
      15083.2      2888.71
      15095.0      2891.14
      15106.8      2893.79
      15118.7      2896.14
      15130.5      2898.72
      15142.3      2901.02
      15154.1      2903.73
      15165.9      2906.21
      15177.7      2908.56
      15189.5      2911.00
      15201.3      2913.69
      15213.1      2916.70
      15224.9      2920.21
      15236.8      2923.56
      15248.6      2926.66
      15260.4      2930.00
      15272.2      2933.29
      15284.0      2936.69
      15295.8      2939.86
      15307.6      2943.20
      15319.4      2946.34
      15331.2      2949.72
      15343.0      2952.96
      15354.9      2956.35
      15366.7      2959.51
      15378.5      2963.02
      15390.3      2966.05
      15402.1      2969.64
      15413.9      2973.22
      15425.7      2976.92
      15437.5      2980.59
      15449.3      2984.35
      15461.1      2988.19
      15473.0      2991.70
      15484.8      2995.50
      15496.6      2999.31
      15508.4      3002.91
      15520.2      3006.68
      15532.0      3010.33
      15543.8      3014.07
      15555.6      3017.78
      15567.4      3021.46
      15579.3      3025.24
      15591.1      3028.92
      15602.9      3032.65
      15614.7      3036.19
      15626.5      3040.07
      15638.3      3043.54
      15650.1      3047.34
      15661.9      3050.87
      15673.7      3054.60
      15685.5      3058.27
      15697.4      3061.99
      15709.2      3065.61
      15721.0      3069.18
      15732.8      3073.02
      15744.6      3076.52
      15756.4      3080.25
      15768.2      3083.81
      15780.0      3087.70
      15791.8      3091.38
      15803.6      3094.62
      15815.5      3097.72
      15827.3      3100.64
      15839.1      3103.66
      15850.9      3106.61
      15862.7      3109.89
      15874.5      3112.64
      15886.3      3115.60
      15898.1      3118.71
      15909.9      3121.69
      15921.8      3124.66
      15933.6      3127.71
      15945.4      3130.68
      15957.2      3133.73
      15969.0      3136.67
      15980.8      3139.56
      15992.6      3142.87
      16004.4      3145.04
      16016.2      3146.95
      16028.0      3148.55
      16039.8      3150.36
      16051.7      3151.81
      16063.5      3153.82
      16075.3      3155.35
      16087.1      3156.98
      16098.9      3158.82
      16110.7      3160.39
      16122.5      3162.03
      16134.3      3163.92
      16146.1      3165.63
      16158.0      3167.29
      16169.8      3168.81
      16181.6      3170.64
      16193.4      3172.37
      16205.2      3173.18
      16217.0      3172.72
      16228.8      3172.72
      16240.6      3172.49
      16252.4      3172.20
      16264.2      3171.98
      16276.1      3171.58
      16287.9      3171.48
      16299.7      3171.09
      16311.5      3171.03
      16323.3      3170.70
      16335.1      3170.52
      16346.9      3170.08
      16358.7      3169.96
      16370.5      3169.73
      16382.3      3169.27
      16394.2      3169.34
      16406.0      3167.59
      16417.8      3165.26
      16429.6      3162.43
      16441.4      3159.31
      16453.2      3157.22
      16465.0      3154.28
      16476.8      3151.77
      16488.6      3148.91
      16500.5      3146.26
      16512.3      3143.78
      16524.1      3141.03
      16535.9      3138.33
      16547.7      3135.55
      16559.5      3133.06
      16571.3      3130.45
      16583.1      3127.38
      16594.9      3124.81
      16606.7      3121.39
      16618.6      3117.00
      16630.4      3112.53
      16642.2      3108.20
      16654.0      3104.01
      16665.8      3099.72
      16677.6      3095.09
      16689.4      3090.55
      16701.2      3086.51
      16713.0      3082.21
      16724.8      3077.53
      16736.7      3073.72
      16748.5      3068.97
      16760.3      3064.51
      16772.1      3060.43
      16783.9      3055.90
      16795.7      3051.49
      16807.5      3046.85
      16819.3      3041.55
      16831.1      3036.93
      16842.9      3031.62
      16854.8      3026.75
      16866.6      3021.72
      16878.4      3016.23
      16890.2      3011.52
      16902.0      3006.57
      16913.8      3001.54
      16925.6      2996.19
      16937.4      2991.32
      16949.2      2986.44
      16961.1      2981.04
      16972.9      2976.18
      16984.7      2970.97
      16996.5      2965.99
      17008.3      2960.89
      17020.1      2955.06
      17031.9      2949.51
      17043.7      2943.86
      17055.5      2938.31
      17067.3      2932.71
      17079.2      2927.03
      17091.0      2921.36
      17102.8      2916.10
      17114.6      2910.12
      17126.4      2904.80
      17138.2      2898.97
      17150.0      2893.32
      17161.8      2887.94
      17173.6      2882.43
      17185.4      2876.74
      17197.3      2871.13
      17209.1      2865.00
      17220.9      2858.70
      17232.7      2852.57
      17244.5      2846.03
      17256.3      2840.34
      17268.1      2833.44
      17279.9      2827.75
      17291.7      2821.15
      17303.5      2815.04
      17315.4      2808.76
      17327.2      2802.31
      17339.0      2796.47
      17350.8      2789.86
      17362.6      2783.80
      17374.4      2777.77
      17386.2      2771.12
      17398.0      2764.94
      17409.8      2758.19
      17421.6      2751.25
      17433.5      2744.69
      17445.3      2737.75
      17457.1      2730.49
      17468.9      2723.87
      17480.7      2717.06
      17492.5      2710.25
      17504.3      2703.30
      17516.1      2696.18
      17527.9      2689.67
      17539.7      2682.74
      17551.6      2675.47
      17563.4      2668.93
      17575.2      2662.14
      17587.0      2655.28
      17598.8      2648.11
      17610.6      2641.27
      17622.4      2634.06
      17634.2      2627.35
      17646.0      2620.31
      17657.9      2613.17
      17669.7      2606.13
      17681.5      2599.18
      17693.3      2592.31
      17705.1      2585.16
      17716.9      2578.34
      17728.7      2570.93
      17740.5      2564.26
      17752.3      2557.06
      17764.1      2550.03
      17776.0      2542.92
      17787.8      2536.13
      17799.6      2529.25
      17811.4      2522.54
      17823.2      2516.01
      17835.0      2509.42
      17846.8      2502.71
      17858.6      2496.32
      17870.4      2489.68
      17882.2      2483.46
      17894.1      2476.40
      17905.9      2470.34
      17917.7      2463.48
      17929.5      2457.07
      17941.3      2450.50
      17953.1      2443.98
      17964.9      2437.43
      17976.7      2430.92
      17988.5      2424.34
      18000.4      2417.74
      18012.2      2412.41
      18024.0      2406.76
      18035.8      2401.15
      18047.6      2395.49
      18059.4      2390.42
      18071.2      2384.64
      18083.0      2378.77
      18094.8      2373.65
      18106.6      2368.05
      18118.5      2362.27
      18130.3      2356.74
      18142.1      2351.48
      18153.9      2345.69
      18165.7      2340.38
      18177.5      2334.74
      18189.3      2329.12
      18201.1      2323.80
      18212.9      2319.42
      18224.7      2314.54
      18236.6      2310.10
      18248.4      2305.72
      18260.2      2301.04
      18272.0      2296.43
      18283.8      2292.04
      18295.6      2287.61
      18307.4      2282.82
      18319.2      2278.31
      18331.0      2273.98
      18342.8      2269.40
      18354.7      2264.56
      18366.5      2260.50
      18378.3      2255.59
      18390.1      2251.33
      18401.9      2246.65
      18413.7      2243.30
      18425.5      2239.25
      18437.3      2235.78
      18449.1      2231.76
      18460.9      2228.38
      18472.8      2224.55
      18484.6      2220.62
      18496.4      2217.15
      18508.2      2213.58
      18520.0      2209.82
      18531.8      2205.80
      18543.6      2202.25
      18555.4      2198.81
      18567.2      2194.94
      18579.1      2190.93
      18590.9      2187.53
      18602.7      2183.84
      18614.5      2180.80
      18626.3      2177.82
      18638.1      2174.74
      18649.9      2171.74
      18661.7      2168.35
      18673.5      2165.48
      18685.3      2162.48
      18697.2      2159.33
      18709.0      2156.19
      18720.8      2153.38
      18732.6      2150.09
      18744.4      2146.93
      18756.2      2143.91
      18768.0      2141.15
      18779.8      2137.75
      18791.6      2134.70
      18803.4      2131.85
      18815.3      2129.20
      18827.1      2126.72
      18838.9      2124.12
      18850.7      2121.67
      18862.5      2119.07
      18874.3      2116.40
      18886.1      2114.12
      18897.9      2111.40
      18909.7      2108.58
      18921.5      2106.43
      18933.4      2103.69
      18945.2      2100.94
      18957.0      2098.69
      18968.8      2096.08
      18980.6      2093.38
      18992.4      2090.94
      19004.2      2088.44
      19016.0      2086.29
      19027.8      2084.32
      19039.7      2082.27
      19051.5      2079.98
      19063.3      2077.96
      19075.1      2075.54
      19086.9      2073.66
      19098.7      2071.64
      19110.5      2069.48
      19122.3      2067.35
      19134.1      2065.16
      19145.9      2063.24
      19157.8      2060.98
      19169.6      2058.75
      19181.4      2056.62
      19193.2      2054.76
      19205.0      2052.69
      19216.8      2050.89
      19228.6      2049.18
      19240.4      2047.54
      19252.2      2045.82
      19264.0      2043.85
      19275.9      2042.42
      19287.7      2040.37
      19299.5      2038.80
      19311.3      2037.00
      19323.1      2035.42
      19334.9      2033.61
      19346.7      2031.78
      19358.5      2029.95
      19370.3      2028.50
      19382.1      2026.63
      19394.0      2024.77
      19405.8      2023.34
      19417.6      2021.84
      19429.4      2020.56
      19441.2      2018.91
      19453.0      2017.54
      19464.8      2016.20
      19476.6      2014.81
      19488.4      2013.34
      19500.2      2011.73
      19512.1      2010.27
      19523.9      2008.97
      19535.7      2007.65
      19547.5      2006.21
      19559.3      2004.55
      19571.1      2003.24
      19582.9      2001.78
      19594.7      2000.50
      19606.5      1999.06
      19618.4      1997.78
      19630.2      1996.48
      19642.0      1995.56
      19653.8      1994.40
      19665.6      1992.90
      19677.4      1991.92
      19689.2      1990.79
      19701.0      1989.22
      19712.8      1988.40
      19724.6      1986.85
      19736.5      1986.05
      19748.3      1984.61
      19760.1      1983.49
      19771.9      1982.07
      19783.7      1981.27
      19795.5      1979.68
      19807.3      1978.75
      19819.1      1977.56
      19830.9      1976.89
      19842.7      1975.47
      19854.6      1974.56
      19866.4      1973.42
      19878.2      1972.64
      19890.0      1971.25
      19901.8      1970.48
      19913.6      1969.26
      19925.4      1968.35
      19937.2      1967.30
      19949.0      1966.28
      19960.8      1965.09
      19972.7      1964.24
      19984.5      1962.96
      19996.3      1962.17
      20008.1      1961.04
      20019.9      1960.24
      20031.7      1959.18
      20043.5      1958.17
      20055.3      1957.55
      20067.1      1956.27
      20079.0      1955.62
      20090.8      1954.55
      20102.6      1953.54
      20114.4      1952.77
      20126.2      1951.87
      20138.0      1950.76
      20149.8      1950.08
      20161.6      1948.97
      20173.4      1948.25
      20185.2      1946.96
      20197.1      1946.20
      20208.9      1945.57
      20220.7      1944.53
      20232.5      1943.75
      20244.3      1942.59
      20256.1      1942.04
      20267.9      1941.38
      20279.7      1940.21
      20291.5      1939.35
      20303.3      1938.88
      20315.2      1937.48
      20327.0      1937.18
      20338.8      1936.03
      20350.6      1935.25
      20362.4      1934.37
      20374.2      1933.51
      20386.0      1932.84
      20397.8      1931.71
      20409.6      1930.99
      20421.5      1930.36
      20433.3      1929.60
      20445.1      1928.51
      20456.9      1928.02
      20468.7      1926.94
      20480.5      1926.31
      20492.3      1925.47
      20504.1      1924.59
      20515.9      1923.99
      20527.7      1923.04
      20539.6      1922.32
      20551.4      1921.32
      20563.2      1920.74
      20575.0      1919.85
      20586.8      1918.98
      20598.6      1918.37
      20610.4      1917.34
      20622.2      1916.88
      20634.0      1915.74
      20645.8      1915.17
      20657.7      1914.43
      20669.5      1913.29
      20681.3      1912.71
      20693.1      1911.93
      20704.9      1911.14
      20716.7      1910.41
      20728.5      1909.39
      20740.3      1908.98
      20752.1      1907.91
      20763.9      1907.13
      20775.8      1906.30
      20787.6      1905.56
      20799.4      1904.72
      20811.2      1904.00
      20823.0      1903.33
      20834.8      1902.23
      20846.6      1901.44
      20858.4      1900.86
      20870.2      1899.80
      20882.0      1899.36
      20893.9      1898.33
      20905.7      1897.60
      20917.5      1896.69
      20929.3      1895.89
      20941.1      1895.08
      20952.9      1894.57
      20964.7      1893.44
      20976.5      1892.74
      20988.3      1891.94
      21000.2      1891.14
      21012.0      1890.20
      21023.8      1889.56
      21035.6      1888.70
      21047.4      1887.78
      21059.2      1887.15
      21071.0      1886.21
      21082.8      1885.22
      21094.6      1884.58
      21106.4      1883.73
      21118.3      1882.80
      21130.1      1882.24
      21141.9      1881.06
      21153.7      1880.54
      21165.5      1879.48
      21177.3      1878.64
      21189.1      1878.01
      21200.9      1877.08
      21212.7      1876.14
      21224.5      1875.43
      21236.4      1874.54
      21248.2      1873.63
      21260.0      1872.86
      21271.8      1871.73
      21283.6      1871.19
      21295.4      1870.24
      21307.2      1869.07
      21319.0      1868.56
      21330.8      1867.63
      21342.6      1866.61
      21354.5      1865.82
      21366.3      1865.06
      21378.1      1864.00
      21389.9      1863.14
      21401.7      1862.49
      21413.5      1861.42
      21425.3      1860.62
      21437.1      1859.54
      21448.9      1858.71
      21460.8      1857.64
      21472.6      1856.87
      21484.4      1855.88
      21496.2      1855.23
      21508.0      1853.98
      21519.8      1853.19
      21531.6      1852.26
      21543.4      1851.25
      21555.2      1850.66
      21567.0      1849.45
      21578.9      1848.40
      21590.7      1847.69
      21602.5      1846.86
      21614.3      1845.71
      21626.1      1844.86
      21637.9      1843.75
      21649.7      1842.97
      21661.5      1841.59
      21673.3      1841.02
      21685.1      1839.80
      21697.0      1839.05
      21708.8      1837.96
      21720.6      1836.98
      21732.4      1836.06
      21744.2      1834.99
      21756.0      1834.18
      21767.8      1832.92
      21779.6      1832.25
      21791.4      1831.13
      21803.2      1830.11
      21815.1      1829.14
      21826.9      1827.96
      21838.7      1827.12
      21850.5      1826.15
      21862.3      1824.92
      21874.1      1824.01
      21885.9      1822.83
      21897.7      1821.94
      21909.5      1820.95
      21921.3      1819.95
      21933.2      1818.80
      21945.0      1817.95
      21956.8      1816.79
      21968.6      1815.75
      21980.4      1814.89
      21992.2      1813.50
      22004.0      1812.69
      22015.8      1811.68
      22027.6      1810.61
      22039.5      1809.42
      22051.3      1808.53
      22063.1      1807.38
      22074.9      1806.34
      22086.7      1805.09
      22098.5      1804.19
      22110.3      1803.18
      22122.1      1801.84
      22133.9      1801.05
      22145.7      1800.03
      22157.6      1798.67
      22169.4      1797.82
      22181.2      1796.70
      22193.0      1795.48
      22204.8      1794.64
      22216.6      1793.49
      22228.4      1792.23
      22240.2      1791.34
      22252.0      1790.13
      22263.8      1789.03
      22275.7      1787.90
      22287.5      1786.74
      22299.3      1785.73
      22311.1      1784.66
      22322.9      1783.45
      22334.7      1782.52
      22346.5      1781.17
      22358.3      1780.23
      22370.1      1779.17
      22382.0      1778.02
      22393.8      1777.05
      22405.6      1775.66
      22417.4      1774.56
      22429.2      1773.50
      22441.0      1772.49
      22452.8      1771.33
      22464.6      1769.99
      22476.4      1768.96
      22488.2      1767.93
      22500.0      1766.63
      22511.9      1765.41
      22523.7      1764.47
      22535.5      1763.32
      22547.3      1762.26
      22559.1      1760.85
      22570.9      1759.86
      22582.7      1758.63
      22594.5      1757.66
      22606.3      1756.33
      22618.2      1754.92
      22630.0      1753.76
      22641.8      1752.33
      22653.6      1750.85
      22665.4      1749.51
      22677.2      1748.34
      22689.0      1747.01
      22700.8      1745.44
      22712.6      1744.11
      22724.4      1742.98
      22736.3      1741.53
      22748.1      1740.14
      22759.9      1738.98
      22771.7      1737.24
      22783.5      1736.23
      22795.3      1734.85
      22807.1      1733.17
      22818.9      1731.14
      22830.7      1729.67
      22842.5      1727.55
      22854.4      1725.86
      22866.2      1723.84
      22878.0      1722.23
      22889.8      1720.39
      22901.6      1718.34
      22913.4      1716.63
      22925.2      1714.97
      22937.0      1713.02
      22948.8      1711.07
      22960.6      1709.29
      22972.5      1707.45
      22984.3      1705.61
      22996.1      1703.69
      23007.9      1701.39
      23019.7      1699.04
      23031.5      1696.44
      23043.3      1693.91
      23055.1      1691.39
      23066.9      1688.86
      23078.8      1686.34
      23090.6      1683.74
      23102.4      1681.43
      23114.2      1678.71
      23126.0      1676.11
      23137.8      1673.94
      23149.6      1671.14
      23161.4      1668.58
      23173.2      1666.15
      23185.0      1663.70
      23196.9      1660.99
      23208.7      1658.26
      23220.5      1654.98
      23232.3      1652.18
      23244.1      1648.90
      23255.9      1646.00
      23267.7      1642.89
      23279.5      1639.74
      23291.3      1636.76
      23303.1      1633.52
      23315.0      1630.64
      23326.8      1627.46
      23338.6      1624.43
      23350.4      1621.51
      23362.2      1618.40
      23374.0      1615.08
      23385.8      1612.30
      23397.6      1609.10
      23409.4      1605.91
      23421.3      1602.43
      23433.1      1598.94
      23444.9      1595.77
      23456.7      1592.23
      23468.5      1589.03
      23480.3      1585.46
      23492.1      1582.02
      23503.9      1578.82
      23515.7      1575.47
      23527.5      1572.16
      23539.4      1568.45
      23551.2      1565.49
      23563.0      1561.90
      23574.8      1558.52
      23586.6      1555.14
      23598.4      1551.63
      23610.2      1548.40
      23622.0      1544.83
      23633.8      1541.26
      23645.6      1537.81
      23657.5      1534.50
      23669.3      1530.84
      23681.1      1527.33
      23692.9      1524.11
      23704.7      1520.36
      23716.5      1517.09
      23728.3      1513.41
      23740.1      1509.97
      23751.9      1506.49
      23763.7      1503.04
      23775.6      1499.55
      23787.4      1496.12
      23799.2      1492.67
      23811.0      1488.99
      23822.8      1485.84
      23834.6      1482.32
      23846.4      1479.05
      23858.2      1475.49
      23870.0      1472.01
      23881.8      1468.70
      23893.7      1465.45
      23905.5      1461.75
      23917.3      1458.53
      23929.1      1454.86
      23940.9      1451.78
      23952.7      1448.12
      23964.5      1444.73
      23976.3      1441.36
      23988.1      1437.97
      24000.0      1434.67
      24011.8      1431.33
      24023.6      1428.10
      24035.4      1425.01
      24047.2      1422.01
      24059.0      1418.66
      24070.8      1415.39
      24082.6      1412.37
      24094.4      1409.16
      24106.2      1405.89
      24118.1      1402.67
      24129.9      1399.61
      24141.7      1396.58
      24153.5      1393.17
      24165.3      1390.14
      24177.1      1386.90
      24188.9      1383.81
      24200.7      1380.53
      24212.5      1377.71
      24224.3      1374.78
      24236.2      1372.02
      24248.0      1369.23
      24259.8      1366.26
      24271.6      1363.47
      24283.4      1360.36
      24295.2      1357.84
      24307.0      1354.74
      24318.8      1351.95
      24330.6      1349.08
      24342.4      1346.27
      24354.3      1343.32
      24366.1      1340.63
      24377.9      1337.50
      24389.7      1334.97
      24401.5      1331.93
      24413.3      1329.49
      24425.1      1326.80
      24436.9      1324.29
      24448.7      1321.79
      24460.5      1319.33
      24472.4      1316.67
      24484.2      1313.98
      24496.0      1311.79
      24507.8      1308.87
      24519.6      1306.57
      24531.4      1303.96
      24543.2      1301.40
      24555.0      1298.82
      24566.8      1296.35
      24578.7      1293.70
      24590.5      1291.20
      24602.3      1288.66
      24614.1      1286.48
      24625.9      1284.37
      24637.7      1281.85
      24649.5      1279.79
      24661.3      1277.38
      24673.1      1275.18
      24684.9      1273.09
      24696.8      1270.74
      24708.6      1268.41
      24720.4      1266.24
      24732.2      1264.07
      24744.0      1261.65
      24755.8      1259.71
      24767.6      1257.19
      24779.4      1255.01
      24791.2      1252.69
      24803.0      1250.52
      24814.9      1248.75
      24826.7      1246.65
      24838.5      1244.59
      24850.3      1242.67
      24862.1      1240.77
      24873.9      1238.56
      24885.7      1236.82
      24897.5      1234.79
      24909.3      1232.79
      24921.1      1230.86
      24933.0      1228.83
      24944.8      1226.73
      24956.6      1224.96
      24968.4      1222.92
      24980.2      1220.89
      24992.0      1218.82
      25003.8      1217.20
      25015.6      1215.26
      25027.4      1213.51
      25039.3      1211.76
      25051.1      1209.87
      25062.9      1208.40
      25074.7      1206.46
      25086.5      1204.75
      25098.3      1203.02
      25110.1      1201.24
      25121.9      1199.47
      25133.7      1197.79
      25145.5      1195.87
      25157.4      1194.31
      25169.2      1192.37
      25181.0      1190.85
      25192.8      1188.82
      25204.6      1187.35
      25216.4      1185.70
      25228.2      1184.19
      25240.0      1182.48
      25251.8      1180.97
      25263.6      1179.39
      25275.5      1177.91
      25287.3      1176.20
      25299.1      1174.63
      25310.9      1173.05
      25322.7      1171.49
      25334.5      1169.95
      25346.3      1168.31
      25358.1      1166.86
      25369.9      1165.17
      25381.8      1163.62
      25393.6      1161.98
      25405.4      1160.54
      25417.2      1159.13
      25429.0      1157.66
      25440.8      1156.17
      25452.6      1154.57
      25464.4      1153.34
      25476.2      1151.80
      25488.0      1150.28
      25499.9      1149.01
      25511.7      1147.29
      25523.5      1146.05
      25535.3      1144.51
      25547.1      1143.15
      25558.9      1141.53
      25570.7      1140.24
      25582.5      1138.63
      25594.3      1137.47
