# spectrum  Type     U-V    B-V    V-R    V-I    V-J    V-K
# ---------------------------------------------------------
# bpgs_51  G5V      0.98   0.66   0.42   0.81   1.23   1.62
#
# lambda (Angstroms)  flux (phot/lambda)
#----------------------------------------------------------
PHOTLAM
      895.930  2.62613e-11
      908.286  8.09511e-11
      920.641  1.57964e-10
      932.996  3.44504e-10
      945.352  5.90236e-10
      957.707  8.97335e-10
      970.062  1.41817e-09
      982.417  2.06579e-09
      994.773  3.07609e-09
      1007.13  4.31641e-09
      1019.48  6.13136e-09
      1031.84  8.34073e-09
      1044.19  1.18682e-08
      1056.55  1.63674e-08
      1068.90  2.29258e-08
      1081.26  3.13159e-08
      1093.61  1.80526e-07
      1105.97  4.52459e-07
      1118.32  6.95589e-07
      1130.68  9.08285e-07
      1143.04  1.17277e-06
      1155.39  1.56867e-06
      1167.75  2.02934e-06
      1180.10  2.54886e-06
      1192.46  3.19762e-06
      1204.81  4.04557e-06
      1217.17  5.18964e-06
      1229.52  6.83878e-06
      1241.88  8.79521e-06
      1254.23  1.11477e-05
      1266.59  1.38405e-05
      1278.94  1.69155e-05
      1291.30  2.09592e-05
      1303.65  2.55073e-05
      1316.01  3.06583e-05
      1328.36  3.64882e-05
      1340.72  4.30016e-05
      1353.07  5.11223e-05
      1365.43  6.09391e-05
      1377.79  7.28312e-05
      1390.14  8.75064e-05
      1402.50  0.000104113
      1414.85  0.000123736
      1427.21  0.000147102
      1439.56  0.000173989
      1451.92  0.000207279
      1464.27  0.000244449
      1476.63  0.000286709
      1488.98  0.000339768
      1501.34  0.000711180
      1513.69   0.00233199
      1526.05   0.00402695
      1538.40   0.00556431
      1550.76   0.00604564
      1563.11   0.00650639
      1575.47   0.00761284
      1587.82   0.00900316
      1600.18    0.0105539
      1612.53    0.0121337
      1624.89    0.0136616
      1637.25    0.0150902
      1649.60    0.0162246
      1661.96    0.0445352
      1674.31     0.163909
      1686.67     0.262579
      1699.02     0.335465
      1711.38     0.394365
      1723.73     0.460881
      1736.09     0.547919
      1748.44     0.576908
      1760.80     0.598701
      1773.15     0.727731
      1785.51     0.797230
      1797.86     0.773198
      1810.22     0.702462
      1822.57     0.643720
      1834.93     0.660230
      1847.28     0.741401
      1859.64     0.861562
      1872.00     0.955395
      1884.35      1.05279
      1896.71      1.16593
      1909.06      1.30746
      1921.42      1.41460
      1933.77      1.34057
      1946.13      1.30195
      1958.48      1.34166
      1970.84      1.62538
      1983.19      1.89375
      1995.55      1.97756
      2007.90      2.70383
      2020.26      2.90610
      2032.61      3.30530
      2044.97      4.05260
      2057.32      4.25956
      2069.68      5.01080
      2082.03      6.29897
      2094.39      7.09238
      2106.74      7.58702
      2119.10      8.91625
      2131.46      8.41191
      2143.81      10.7946
      2156.17      10.0062
      2168.52      9.15688
      2180.88      11.7687
      2193.23      12.6166
      2205.59      12.5330
      2217.94      11.9648
      2230.30      16.0371
      2242.65      16.3636
      2255.01      14.4359
      2267.36      10.3665
      2279.72      13.2924
      2292.07      13.3547
      2304.43      14.0873
      2316.78      13.8484
      2329.14      13.7253
      2341.49      10.9496
      2353.85      14.3274
      2366.20      13.5945
      2378.56      12.4241
      2390.92      12.7173
      2403.27      11.5617
      2415.63      14.9632
      2427.98      19.2961
      2440.34      17.8714
      2452.69      14.3698
      2465.05      14.3526
      2477.40      15.0977
      2489.76      13.4031
      2502.11      17.0507
      2514.47      13.3239
      2526.82      12.8509
      2539.18      16.2681
      2551.53      20.8476
      2563.89      28.2092
      2576.24      36.2744
      2588.60      34.6310
      2600.95      25.8147
      2613.31      25.8296
      2625.67      30.3664
      2638.02      58.4297
      2650.38      69.2184
      2662.73      70.5481
      2675.09      70.4597
      2687.44      67.6153
      2699.80      73.3381
      2712.15      67.8657
      2724.51      56.7139
      2736.86      49.4581
      2749.22      41.9465
      2761.57      66.5955
      2773.93      65.7580
      2786.28      42.1129
      2798.64      23.6797
      2810.99      50.1770
      2823.35      82.3288
      2835.70      90.7619
      2848.06      51.7427
      2860.42      79.9255
      2872.77      100.093
      2885.13      95.1980
      2897.48      150.589
      2909.84      168.624
      2922.19      148.370
      2934.55      154.299
      2946.90      148.453
      2959.26      163.375
      2971.61      139.877
      2983.97      135.610
      2996.32      134.636
      3008.68      132.714
      3021.03      126.856
      3033.39      179.345
      3045.74      174.773
      3058.10      158.317
      3070.45      168.618
      3082.81      172.729
      3095.16      133.407
      3107.52      168.569
      3119.88      185.654
      3132.23      186.995
      3144.59      190.002
      3156.94      183.946
      3169.30      195.565
      3181.65      200.087
      3194.01      203.526
      3206.36      202.219
      3218.72      197.953
      3231.07      218.967
      3243.43      239.766
      3255.78      245.641
      3268.14      238.648
      3280.49      232.834
      3292.85      256.878
      3305.20      254.172
      3317.56      244.314
      3329.91      237.755
      3342.27      246.070
      3354.62      243.209
      3366.98      233.168
      3379.34      251.606
      3391.69      267.164
      3404.05      270.749
      3416.40      273.751
      3428.76      264.862
      3441.11      243.280
      3453.47      258.372
      3465.82      265.691
      3478.18      257.657
      3490.53      263.634
      3502.89      293.952
      3515.24      296.932
      3527.60      297.205
      3539.95      333.150
      3552.31      322.814
      3564.66      280.676
      3577.02      248.938
      3589.38      282.319
      3601.73      313.093
      3614.09      302.038
      3626.44      331.045
      3638.80      331.325
      3651.15      365.946
      3663.51      397.934
      3675.86      384.004
      3688.22      391.669
      3700.57      392.949
      3712.93      380.018
      3725.28      353.079
      3737.64      300.822
      3749.99      331.458
      3762.35      384.735
      3774.70      426.858
      3787.06      411.932
      3799.41      403.248
      3811.77      363.451
      3824.12      273.506
      3836.48      282.276
      3848.83      324.178
      3861.19      325.411
      3873.55      324.913
      3885.90      346.719
      3898.26      396.550
      3910.61      404.505
      3922.97      325.494
      3935.32      282.620
      3947.68      386.774
      3960.03      351.849
      3972.39      383.646
      3984.74      556.843
      3997.10      613.033
      4009.45      647.592
      4021.81      671.689
      4034.16      680.495
      4046.52      662.509
      4058.87      647.430
      4071.23      654.364
      4083.58      686.682
      4095.94      667.708
      4108.29      688.047
      4120.65      698.744
      4133.01      695.515
      4145.36      684.609
      4157.72      680.398
      4170.07      670.836
      4182.43      674.792
      4194.78      673.647
      4207.14      708.868
      4219.49      684.225
      4231.85      669.117
      4244.20      675.566
      4256.56      667.839
      4268.91      666.158
      4281.27      650.649
      4293.62      578.092
      4305.98      593.384
      4318.33      707.506
      4330.69      708.550
      4343.04      749.179
      4355.40      782.655
      4367.75      764.423
      4380.11      717.112
      4392.47      731.162
      4404.82      755.953
      4417.18      787.666
      4429.53      796.991
      4441.89      795.234
      4454.24      781.557
      4466.60      814.464
      4478.95      839.939
      4491.31      848.407
      4503.66      883.799
      4516.02      863.990
      4528.37      820.585
      4540.73      839.226
      4553.08      863.569
      4565.44      866.758
      4577.79      860.017
      4590.15      854.950
      4602.51      878.521
      4614.86      906.414
      4627.21      905.269
      4639.57      887.830
      4651.93      889.731
      4664.28      876.528
      4676.64      881.955
      4688.99      890.820
      4701.35      886.261
      4713.70      907.092
      4726.06      919.875
      4738.41      938.216
      4750.77      940.060
      4763.12      931.352
      4775.48      961.125
      4787.83      972.666
      4800.19      981.973
      4812.54      991.999
      4824.90      985.304
      4837.25      970.576
      4849.61      905.678
      4861.97      863.845
      4874.32      903.144
      4886.68      917.199
      4899.03      938.322
      4911.39      911.261
      4923.74      924.233
      4936.10      939.368
      4948.45      957.240
      4960.81      948.941
      4973.16      943.742
      4985.52      936.275
      4997.87      919.109
      5010.23      899.491
      5022.58      914.252
      5034.94      928.187
      5047.29      950.353
      5059.65      956.371
      5072.00      931.537
      5084.36      932.831
      5096.71      932.258
      5109.07      953.427
      5121.43      948.323
      5133.78      938.498
      5146.14      947.152
      5158.49      901.699
      5170.85      867.357
      5183.20      888.415
      5195.56      919.996
      5207.91      947.377
      5220.27      948.681
      5232.62      954.239
      5244.98      979.107
      5257.33      940.197
      5269.69      923.405
      5282.04      983.945
      5294.40      1003.76
      5306.75      1021.94
      5319.11      989.759
      5331.46      971.328
      5343.82      1003.15
      5356.18      1022.66
      5368.53      1003.84
      5380.89      1007.03
      5393.24      977.795
      5405.60      968.356
      5417.95      993.733
      5430.31      1005.58
      5442.66      1016.86
      5455.02      1028.12
      5467.37      1014.42
      5479.73      1003.97
      5492.08      1011.97
      5504.44      1014.61
      5516.79      1015.35
      5529.15      1031.51
      5541.50      1045.20
      5553.86      1048.54
      5566.21      1035.71
      5578.57      1023.76
      5590.93      1022.32
      5603.28      1035.56
      5615.64      1052.18
      5627.99      1060.96
      5640.35      1061.55
      5652.70      1051.01
      5665.06      1056.27
      5677.41      1070.98
      5689.77      1070.34
      5702.12      1062.95
      5714.48      1059.06
      5726.83      1090.34
      5739.19      1092.91
      5751.54      1086.30
      5763.90      1080.23
      5776.25      1072.79
      5788.61      1073.99
      5800.96      1080.75
      5813.32      1093.11
      5825.67      1094.13
      5838.03      1081.48
      5850.39      1070.40
      5862.74      1059.01
      5875.10      1045.36
      5887.45      1039.50
      5899.81      1042.26
      5912.16      1064.88
      5924.52      1080.39
      5936.87      1078.52
      5949.23      1077.95
      5961.58      1078.02
      5973.94      1078.09
      5986.29      1074.68
      5998.65      1068.51
      6011.00      1068.23
      6023.36      1070.53
      6035.71      1075.03
      6048.07      1078.58
      6060.42      1079.11
      6072.78      1067.41
      6085.13      1052.77
      6097.49      1036.82
      6109.84      1024.88
      6122.20      1018.53
      6134.56      1024.99
      6146.91      1029.35
      6159.27      1031.18
      6171.62      1032.97
      6183.98      1040.32
      6196.33      1057.31
      6208.69      1058.20
      6221.04      1051.73
      6233.40      1047.70
      6245.75      1047.83
      6258.11      1052.55
      6270.46      1060.11
      6282.82      1066.33
      6295.17      1067.35
      6307.53      1073.89
      6319.88      1082.23
      6332.24      1078.58
      6344.60      1078.03
      6356.95      1085.67
      6369.30      1086.48
      6381.66      1083.61
      6394.02      1078.04
      6406.37      1075.50
      6418.73      1076.31
      6431.08      1078.63
      6443.44      1082.17
      6455.79      1087.26
      6468.15      1083.70
      6480.50      1076.69
      6492.86      1076.27
      6505.21      1082.79
      6517.57      1095.30
      6529.92      1084.55
      6542.28      1065.46
      6554.63      1045.79
      6566.99      1041.60
      6579.34      1050.89
      6591.70      1069.85
      6604.05      1082.63
      6616.41      1080.74
      6628.76      1083.16
      6641.12      1084.61
      6653.48      1072.87
      6665.83      1067.34
      6678.19      1070.08
      6690.54      1069.27
      6702.90      1066.99
      6715.25      1064.05
      6727.61      1060.78
      6739.96      1058.39
      6752.32      1062.47
      6764.67      1067.04
      6777.03      1070.13
      6789.38      1062.77
      6801.74      1055.11
      6814.09      1061.04
      6826.45      1066.34
      6838.80      1067.39
      6851.16      1046.35
      6863.52      1021.31
      6875.87      1000.26
      6888.23      1009.17
      6900.58      1030.99
      6912.94      1034.77
      6925.29      1035.67
      6937.65      1036.16
      6950.00      1034.56
      6962.36      1031.38
      6974.71      1025.87
      6987.07      1025.10
      6999.42      1028.25
      7011.78      1031.76
      7024.13      1034.81
      7036.49      1036.86
      7048.84      1038.26
      7061.20      1039.59
      7073.55      1041.55
      7085.91      1042.94
      7098.26      1042.99
      7110.62      1037.08
      7122.98      1031.75
      7135.33      1032.16
      7147.69      1036.54
      7160.04      1040.93
      7172.40      1031.04
      7184.75      1021.00
      7197.11      1014.84
      7209.46      1015.97
      7221.82      1019.18
      7234.17      1020.05
      7246.53      1017.71
      7258.88      1013.32
      7271.24      1014.49
      7283.59      1017.22
      7295.95      1020.15
      7308.30      1023.78
      7320.66      1026.65
      7333.02      1024.68
      7345.37      1023.62
      7357.73      1024.28
      7370.08      1019.30
      7382.44      1014.09
      7394.79      1013.42
      7407.15      1014.50
      7419.50      1016.84
      7431.86      1021.63
      7444.21      1025.65
      7456.57      1027.56
      7468.92      1025.75
      7481.28      1023.10
      7493.63      1023.77
      7505.99      1025.69
      7518.34      1028.71
      7530.70      1033.49
      7543.05      1037.70
      7555.41      1038.99
      7567.76      1007.79
      7580.12      952.989
      7592.47      883.111
      7604.83      869.292
      7617.19      939.674
      7629.54      978.873
      7641.90      1005.16
      7654.25      1031.09
      7666.61      1023.64
      7678.96      991.693
      7691.32      998.929
      7703.67      1012.79
      7716.03      1020.47
      7728.38      1019.38
      7740.74      1014.64
      7753.09      1013.80
      7765.45      1015.27
      7777.80      1018.65
      7790.16      1018.61
      7802.51      1017.70
      7814.87      1017.36
      7827.22      1017.38
      7839.58      1017.01
      7851.94      1013.86
      7864.29      1012.95
      7876.65      1016.50
      7889.00      1012.75
      7901.36      1005.88
      7913.71      1000.65
      7926.07      994.378
      7938.42      988.105
      7950.78      995.002
      7963.13      1001.99
      7975.49      1000.80
      7987.84      995.825
      8000.20      990.035
      8012.55      991.604
      8024.91      995.071
      8037.26      999.248
      8049.62      999.634
      8061.97      998.600
      8074.33      997.830
      8086.69      993.516
      8099.04      988.722
      8111.39      1004.04
      8123.75      1016.33
      8136.11      1013.12
      8148.46      1005.59
      8160.82      996.987
      8173.17      992.798
      8185.53      987.550
      8197.88      981.650
      8210.24      992.564
      8222.59      1002.21
      8234.95      993.483
      8247.30      994.301
      8259.66      1000.29
      8272.01      988.308
      8284.37      982.084
      8296.72      990.945
      8309.08      992.510
      8321.43      988.218
      8333.79      975.169
      8346.14      977.201
      8358.50      993.721
      8370.85      989.918
      8383.21      983.780
      8395.57      984.543
      8407.92      989.580
      8420.28      996.265
      8432.63      998.346
      8444.99      996.234
      8457.34      989.177
      8469.70      982.354
      8482.05      972.667
      8494.41      953.467
      8506.76      938.367
      8519.12      927.420
      8531.47      917.439
      8543.83      912.140
      8556.18      916.084
      8568.54      928.832
      8580.89      941.584
      8593.25      936.385
      8605.61      929.904
      8617.96      924.548
      8630.32      914.388
      8642.67      901.404
      8655.03      885.430
      8667.38      898.646
      8679.74      927.692
      8692.09      924.339
      8704.45      923.499
      8716.80      936.442
      8729.16      943.191
      8741.51      940.752
      8753.87      916.506
      8766.22      910.164
      8778.58      923.347
      8790.93      930.355
      8803.29      927.675
      8815.64      907.490
      8828.00      904.597
      8840.36      913.151
      8852.71      923.858
      8865.06      929.828
      8877.42      928.537
      8889.78      925.220
      8902.13      921.581
      8914.49      919.063
      8926.84      915.135
      8939.20      910.083
      8951.55      905.321
      8963.91      908.417
      8976.26      925.053
      8988.62      915.595
      9000.97      900.636
      9013.33      919.373
      9025.68      942.884
      9038.04      962.663
      9050.39      939.300
      9062.75      911.139
      9075.10      905.481
      9087.46      908.839
      9099.82      915.453
      9112.17      909.985
      9124.53      903.954
      9136.88      900.393
      9149.24      895.809
      9161.59      893.658
      9173.95      901.045
      9186.30      900.083
      9198.66      890.676
      9211.01      888.090
      9223.37      884.563
      9235.72      875.046
      9248.08      862.748
      9260.43      852.517
      9272.79      859.748
      9285.14      846.210
      9297.50      801.742
      9309.85      757.240
      9322.21      741.659
      9334.56      809.167
      9346.92      829.321
      9359.28      809.047
      9371.63      820.924
      9383.98      848.077
      9396.34      886.764
      9408.70      854.667
      9421.05      797.389
      9433.41      783.499
      9445.76      793.059
      9458.12      819.640
      9470.47      818.166
      9482.83      808.167
      9495.18      798.937
      9507.54      815.191
      9519.89      844.326
      9532.25      848.319
      9544.60      845.292
      9556.96      838.757
      9569.31      829.234
      9581.67      823.261
      9594.02      833.734
      9606.38      843.625
      9618.74      850.356
      9631.09      846.890
      9643.45      847.382
      9655.80      861.311
      9668.16      868.994
      9680.51      870.712
      9692.87      864.212
      9705.22      855.697
      9717.58      846.776
      9729.93      840.200
      9742.29      838.859
      9754.64      849.650
      9767.00      856.548
      9779.35      857.387
      9791.71      845.815
      9804.06      841.631
      9816.42      854.942
      9828.78      853.419
      9841.13      845.835
      9853.49      844.357
      9865.84      842.495
      9878.19      839.288
      9890.55      835.388
      9902.91      833.202
      9915.26      835.979
      9927.62      836.369
      9939.97      836.074
      9952.33      841.451
      9964.68      844.596
      9977.04      842.471
      9989.39      844.009
      10001.7      844.753
      10014.1      837.708
      10026.5      830.833
      10038.8      824.740
      10051.2      816.799
      10063.5      809.934
      10075.9      807.028
      10088.2      812.574
      10100.6      819.239
      10112.9      809.501
      10125.3      807.468
      10137.7      816.744
      10150.0      810.877
      10162.4      803.810
      10174.7      809.152
      10187.1      808.573
      10199.4      801.533
      10211.8      788.172
      10224.1      779.948
      10236.5      782.927
      10248.9      786.130
      10261.2      790.007
      10273.6      796.978
      10285.9      795.640
      10298.3      786.290
      10310.6      787.726
      10323.0      789.555
      10335.3      784.799
      10347.7      793.638
      10360.1      808.235
      10372.4      802.942
      10384.8      793.343
      10397.1      783.283
      10409.5      779.159
      10421.8      779.122
      10434.2      783.993
      10446.5      788.895
      10458.9      793.184
      10471.2      794.364
      10483.6      791.790
      10496.0      783.259
      10508.3      775.826
      10520.7      769.899
      10533.0      768.159
      10545.4      765.969
      10557.7      763.556
      10570.1      769.232
      10582.4      774.215
      10594.8      769.691
      10607.2      766.537
      10619.5      765.191
      10631.9      763.875
      10644.2      762.568
      10656.6      761.205
      10668.9      759.886
      10681.3      758.542
      10693.6      757.204
      10706.0      755.841
      10718.4      754.574
      10730.7      753.193
      10743.1      751.830
      10755.4      750.532
      10767.8      749.211
      10780.1      747.848
      10792.5      746.522
      10804.8      745.184
      10817.2      743.841
      10829.5      742.397
      10841.9      741.078
      10854.3      739.756
      10866.6      738.311
      10879.0      736.970
      10891.3      735.652
      10903.7      734.235
      10916.0      732.863
      10928.4      731.486
      10940.7      730.145
      10953.1      728.803
      10965.5      727.410
      10977.8      726.020
      10990.2      724.713
      11002.5      723.307
      11014.9      721.923
      11027.2      720.603
      11039.6      719.151
      11051.9      717.856
      11064.3      716.457
      11076.7      715.086
      11089.0      713.708
      11101.4      712.377
      11113.7      710.964
      11126.1      709.576
      11138.4      708.247
      11150.8      706.854
      11163.1      705.505
      11175.5      704.122
      11187.9      702.706
      11200.2      701.387
      11212.6      700.072
      11224.9      698.715
      11237.3      697.372
      11249.6      696.094
      11262.0      694.681
      11274.3      693.416
      11286.7      692.062
      11299.0      690.759
      11311.4      689.396
      11323.8      688.073
      11336.1      686.765
      11348.5      685.383
      11360.8      684.142
      11373.2      682.714
      11385.5      681.450
      11397.9      680.077
      11410.2      678.820
      11422.6      677.574
      11435.0      676.278
      11447.3      674.997
      11459.7      673.732
      11472.0      672.463
      11484.4      671.238
      11496.7      669.927
      11509.1      668.629
      11521.4      667.358
      11533.8      666.150
      11546.2      664.853
      11558.5      663.557
      11570.9      662.306
      11583.2      661.009
      11595.6      659.775
      11607.9      658.539
      11620.3      657.362
      11632.6      656.176
      11645.0      654.990
      11657.4      653.805
      11669.7      652.635
      11682.1      651.447
      11694.4      650.242
      11706.8      649.052
      11719.1      647.915
      11731.5      646.687
      11743.8      645.538
      11756.2      644.336
      11768.5      643.151
      11780.9      641.966
      11793.3      640.758
      11805.6      639.654
      11818.0      638.566
      11830.3      637.501
      11842.7      636.452
      11855.0      635.352
      11867.4      634.266
      11879.7      633.245
      11892.1      632.147
      11904.5      631.071
      11916.8      630.007
      11929.2      628.939
      11941.5      627.868
      11953.9      626.789
      11966.2      625.740
      11978.6      624.648
      11990.9      623.574
      12003.3      622.551
      12015.7      621.562
      12028.0      620.678
      12040.4      619.735
      12052.7      618.742
      12065.1      617.830
      12077.4      616.888
      12089.8      615.977
      12102.1      614.994
      12114.5      614.065
      12126.9      613.134
      12139.2      612.163
      12151.6      611.247
      12163.9      610.260
      12176.3      609.384
      12188.6      608.416
      12201.0      607.476
      12213.3      606.667
      12225.7      605.895
      12238.0      605.116
      12250.4      604.286
      12262.8      603.519
      12275.1      602.724
      12287.5      601.921
      12299.8      601.154
      12312.2      600.348
      12324.5      599.565
      12336.9      598.727
      12349.2      597.965
      12361.6      597.167
      12374.0      596.383
      12386.3      595.587
      12398.7      594.826
      12411.0      594.183
      12423.4      593.601
      12435.7      593.011
      12448.1      592.377
      12460.4      591.835
      12472.8      591.229
      12485.2      590.628
      12497.5      590.033
      12509.9      589.503
      12522.2      588.833
      12534.6      588.291
      12546.9      587.676
      12559.3      587.112
      12571.6      586.464
      12584.0      585.913
      12596.4      585.342
      12608.7      584.735
      12621.1      584.161
      12633.4      583.578
      12645.8      582.959
      12658.1      582.396
      12670.5      581.812
      12682.8      581.250
      12695.2      580.642
      12707.5      580.036
      12719.9      579.459
      12732.3      578.905
      12744.6      578.280
      12757.0      577.728
      12769.3      577.160
      12781.7      576.526
      12794.0      575.977
      12806.4      575.287
      12818.7      574.484
      12831.1      573.741
      12843.5      572.933
      12855.8      572.189
      12868.2      571.394
      12880.5      570.632
      12892.9      569.831
      12905.2      569.061
      12917.6      568.282
      12929.9      567.523
      12942.3      566.706
      12954.7      565.964
      12967.0      565.192
      12979.4      564.404
      12991.7      563.589
      13004.1      562.923
      13016.4      562.293
      13028.8      561.655
      13041.1      561.056
      13053.5      560.448
      13065.8      559.848
      13078.2      559.246
      13090.6      558.631
      13102.9      557.973
      13115.3      557.416
      13127.6      556.769
      13140.0      556.196
      13152.3      555.542
      13164.7      554.962
      13177.0      554.335
      13189.4      553.730
      13201.8      553.103
      13214.1      552.563
      13226.5      551.990
      13238.8      551.415
      13251.2      550.877
      13263.5      550.279
      13275.9      549.734
      13288.2      549.118
      13300.6      548.619
      13313.0      548.016
      13325.3      547.438
      13337.7      546.901
      13350.0      546.281
      13362.4      545.766
      13374.7      545.204
      13387.1      544.590
      13399.4      544.050
      13411.8      543.534
      13424.2      542.954
      13436.5      542.421
      13448.9      541.905
      13461.2      541.324
      13473.6      540.828
      13485.9      540.269
      13498.3      539.730
      13510.6      539.202
      13523.0      538.646
      13535.3      538.129
      13547.7      537.560
      13560.1      537.058
      13572.4      536.494
      13584.8      535.946
      13597.1      535.407
      13609.5      534.679
      13621.8      533.902
      13634.2      533.080
      13646.5      532.286
      13658.9      531.522
      13671.3      530.725
      13683.6      529.891
      13696.0      529.143
      13708.3      528.356
      13720.7      527.518
      13733.0      526.762
      13745.4      525.933
      13757.7      525.169
      13770.1      524.352
      13782.5      523.573
      13794.8      522.747
      13807.2      521.976
      13819.5      521.162
      13831.9      520.364
      13844.2      519.542
      13856.6      518.721
      13868.9      517.945
      13881.3      517.086
      13893.7      516.300
      13906.0      515.482
      13918.4      514.665
      13930.7      513.886
      13943.1      513.041
      13955.4      512.261
      13967.8      511.416
      13980.1      510.630
      13992.5      509.850
      14004.8      509.045
      14017.2      508.408
      14029.6      507.789
      14041.9      507.126
      14054.3      506.469
      14066.6      505.814
      14079.0      505.188
      14091.3      504.535
      14103.7      503.866
      14116.0      503.217
      14128.4      502.602
      14140.8      501.953
      14153.1      501.265
      14165.5      500.636
      14177.8      499.984
      14190.2      499.363
      14202.5      498.688
      14214.9      498.101
      14227.2      497.528
      14239.6      496.927
      14252.0      496.345
      14264.3      495.737
      14276.7      495.137
      14289.0      494.587
      14301.4      493.969
      14313.7      493.382
      14326.1      492.804
      14338.4      492.184
      14350.8      491.606
      14363.1      491.008
      14375.5      490.432
      14387.9      489.818
      14400.2      489.252
      14412.6      488.639
      14424.9      487.987
      14437.3      487.391
      14449.6      486.750
      14462.0      486.127
      14474.3      485.496
      14486.7      484.926
      14499.1      484.276
      14511.4      483.647
      14523.8      483.002
      14536.1      482.415
      14548.5      481.794
      14560.8      481.142
      14573.2      480.555
      14585.5      479.928
      14597.9      479.310
      14610.3      478.563
      14622.6      477.829
      14635.0      477.104
      14647.3      476.377
      14659.7      475.626
      14672.0      474.882
      14684.4      474.165
      14696.7      473.393
      14709.1      472.680
      14721.5      471.911
      14733.8      471.205
      14746.2      470.452
      14758.5      469.696
      14770.9      468.989
      14783.2      468.236
      14795.6      467.488
      14807.9      466.874
      14820.3      466.274
      14832.7      465.661
      14845.0      465.107
      14857.4      464.522
      14869.7      463.918
      14882.1      463.322
      14894.4      462.750
      14906.8      462.136
      14919.1      461.576
      14931.5      460.985
      14943.8      460.387
      14956.2      459.795
      14968.6      459.209
      14980.9      458.630
      14993.3      458.046
      15005.6      457.472
      15018.0      456.976
      15030.3      456.436
      15042.7      455.917
      15055.0      455.403
      15067.4      454.867
      15079.8      454.345
      15092.1      453.823
      15104.5      453.310
      15116.8      452.772
      15129.2      452.254
      15141.5      451.766
      15153.9      451.221
      15166.2      450.663
      15178.6      450.186
      15191.0      449.659
      15203.3      449.108
      15215.7      448.586
      15228.0      448.079
      15240.4      447.530
      15252.7      447.008
      15265.1      446.453
      15277.4      445.924
      15289.8      445.411
      15302.1      444.865
      15314.5      444.336
      15326.9      443.806
      15339.2      443.296
      15351.6      442.735
      15363.9      442.201
      15376.3      441.684
      15388.6      441.129
      15401.0      440.638
      15413.3      440.063
      15425.7      439.525
      15438.1      439.010
      15450.4      438.469
      15462.8      437.937
      15475.1      437.378
      15487.5      436.869
      15499.8      436.310
      15512.2      435.764
      15524.5      435.253
      15536.9      434.705
      15549.3      434.154
      15561.6      433.619
      15574.0      433.095
      15586.3      432.535
      15598.7      432.046
      15611.0      431.526
      15623.4      431.115
      15635.7      430.610
      15648.1      430.179
      15660.5      429.753
      15672.8      429.256
      15685.2      428.811
      15697.5      428.344
      15709.9      427.920
      15722.2      427.434
      15734.6      426.986
      15746.9      426.534
      15759.3      426.088
      15771.6      425.589
      15784.0      425.173
      15796.4      424.706
      15808.7      424.249
      15821.1      423.845
      15833.4      423.412
      15845.8      422.946
      15858.1      422.558
      15870.5      422.079
      15882.8      421.694
      15895.2      421.231
      15907.6      420.800
      15919.9      420.370
      15932.3      419.928
      15944.6      419.518
      15957.0      419.071
      15969.3      418.609
      15981.7      418.217
      15994.0      417.781
      16006.4      417.325
      16018.8      416.921
      16031.1      416.510
      16043.5      416.099
      16055.8      415.657
      16068.2      415.246
      16080.5      414.807
      16092.9      414.402
      16105.2      414.000
      16117.6      413.555
      16130.0      413.128
      16142.3      412.717
      16154.7      412.285
      16167.0      411.903
      16179.4      411.455
      16191.7      411.017
      16204.1      410.550
      16216.4      409.952
      16228.8      409.364
      16241.1      408.755
      16253.5      408.194
      16265.9      407.548
      16278.2      406.972
      16290.6      406.388
      16302.9      405.765
      16315.3      405.179
      16327.6      404.583
      16340.0      403.987
      16352.3      403.367
      16364.7      402.789
      16377.1      402.222
      16389.4      401.582
      16401.8      400.963
      16414.1      400.297
      16426.5      399.620
      16438.8      398.986
      16451.2      398.224
      16463.5      397.590
      16475.9      396.905
      16488.3      396.193
      16500.6      395.535
      16513.0      394.850
      16525.3      394.176
      16537.7      393.472
      16550.0      392.779
      16562.4      392.182
      16574.7      391.409
      16587.1      390.758
      16599.4      390.095
      16611.8      389.522
      16624.2      388.998
      16636.5      388.473
      16648.9      387.913
      16661.2      387.378
      16673.6      386.818
      16685.9      386.283
      16698.3      385.745
      16710.6      385.246
      16723.0      384.652
      16735.4      384.145
      16747.7      383.555
      16760.1      383.096
      16772.4      382.507
      16784.8      381.982
      16797.1      381.434
      16809.5      380.785
      16821.8      380.095
      16834.2      379.436
      16846.6      378.761
      16858.9      378.086
      16871.3      377.411
      16883.6      376.749
      16896.0      376.061
      16908.3      375.363
      16920.7      374.709
      16933.0      373.998
      16945.4      373.352
      16957.8      372.681
      16970.1      371.991
      16982.5      371.311
      16994.8      370.620
      17007.2      369.971
      17019.5      369.216
      17031.9      368.534
      17044.2      367.778
      17056.6      367.085
      17069.0      366.405
      17081.3      365.693
      17093.7      364.969
      17106.0      364.206
      17118.4      363.563
      17130.7      362.831
      17143.1      362.124
      17155.4      361.405
      17167.8      360.663
      17180.1      359.998
      17192.5      359.275
      17204.9      358.605
      17217.2      357.992
      17229.6      357.381
      17241.9      356.771
      17254.3      356.160
      17266.6      355.549
      17279.0      354.927
      17291.3      354.316
      17303.7      353.725
      17316.1      353.115
      17328.4      352.509
      17340.8      351.894
      17353.1      351.290
      17365.5      350.679
      17377.8      350.067
      17390.2      349.429
      17402.5      348.897
      17414.9      348.289
      17427.3      347.788
      17439.6      347.253
      17452.0      346.718
      17464.3      346.183
      17476.7      345.666
      17489.0      345.128
      17501.4      344.573
      17513.7      344.053
      17526.1      343.468
      17538.4      342.991
      17550.8      342.427
      17563.2      341.877
      17575.5      341.378
      17587.9      340.829
      17600.2      340.280
      17612.6      339.632
      17624.9      339.024
      17637.3      338.380
      17649.6      337.739
      17662.0      337.120
      17674.4      336.470
      17686.7      335.826
      17699.1      335.217
      17711.4      334.551
      17723.8      333.922
      17736.1      333.282
      17748.5      332.651
      17760.8      332.016
      17773.2      331.379
      17785.6      330.765
      17797.9      330.078
      17810.3      329.558
      17822.6      329.014
      17835.0      328.469
      17847.3      327.866
      17859.7      327.371
      17872.0      326.841
      17884.4      326.235
      17896.8      325.730
      17909.1      325.199
      17921.5      324.613
      17933.8      324.080
      17946.2      323.534
      17958.5      322.987
      17970.9      322.441
      17983.2      321.878
      17995.6      321.366
      18007.9      320.870
      18020.3      320.449
      18032.7      320.021
      18045.0      319.594
      18057.4      319.155
      18069.7      318.750
      18082.1      318.320
      18094.4      317.882
      18106.8      317.455
      18119.1      317.043
      18131.5      316.568
      18143.9      316.157
      18156.2      315.791
      18168.6      315.270
      18180.9      314.913
      18193.3      314.480
      18205.6      314.023
      18218.0      313.574
      18230.3      313.124
      18242.7      312.674
      18255.1      312.206
      18267.4      311.775
      18279.8      311.340
      18292.1      310.853
      18304.5      310.407
      18316.8      309.994
      18329.2      309.525
      18341.5      309.079
      18353.9      308.632
      18366.3      308.191
      18378.6      307.706
      18391.0      307.294
      18403.3      306.755
      18415.7      306.238
      18428.0      305.674
      18440.4      305.114
      18452.7      304.571
      18465.1      304.012
      18477.4      303.434
      18489.8      302.849
      18502.2      302.303
      18514.5      301.744
      18526.9      301.191
      18539.2      300.647
      18551.6      300.040
      18563.9      299.508
      18576.3      298.927
      18588.6      298.420
      18601.0      297.834
      18613.4      297.363
      18625.7      296.869
      18638.1      296.440
      18650.4      295.963
      18662.8      295.506
      18675.1      295.033
      18687.5      294.567
      18699.8      294.114
      18712.2      293.621
      18724.5      293.169
      18736.9      292.713
      18749.3      292.213
      18761.6      291.756
      18774.0      291.317
      18786.3      290.838
      18798.7      290.389
      18811.0      290.007
      18823.4      289.632
      18835.7      289.268
      18848.1      288.901
      18860.5      288.541
      18872.8      288.161
      18885.2      287.810
      18897.5      287.429
      18909.9      287.103
      18922.2      286.714
      18934.6      286.377
      18946.9      285.998
      18959.3      285.608
      18971.7      285.237
      18984.0      284.920
      18996.4      284.529
      19008.7      284.061
      19021.1      283.585
      19033.4      283.078
      19045.8      282.588
      19058.1      282.063
      19070.5      281.599
      19082.9      281.066
      19095.2      280.593
      19107.6      280.071
      19119.9      279.615
      19132.3      279.081
      19144.6      278.601
      19157.0      278.079
      19169.3      277.613
      19181.7      277.072
      19194.1      276.581
      19206.4      276.177
      19218.8      275.782
      19231.1      275.407
      19243.5      275.037
      19255.8      274.655
      19268.2      274.301
      19280.5      273.891
      19292.9      273.570
      19305.3      273.118
      19317.6      272.828
      19330.0      272.396
      19342.3      272.031
      19354.7      271.659
      19367.0      271.285
      19379.4      270.908
      19391.7      270.528
      19404.1      270.171
      19416.4      269.782
      19428.8      269.374
      19441.2      268.978
      19453.5      268.627
      19465.9      268.229
      19478.2      267.855
      19490.6      267.450
      19502.9      267.075
      19515.3      266.650
      19527.6      266.312
      19540.0      265.882
      19552.4      265.542
      19564.7      265.123
      19577.1      264.762
      19589.4      264.328
      19601.8      263.991
      19614.1      263.587
      19626.5      263.174
      19638.8      262.789
      19651.2      262.361
      19663.5      261.963
      19675.9      261.604
      19688.3      261.207
      19700.6      260.769
      19713.0      260.371
      19725.3      260.016
      19737.7      259.613
      19750.0      259.189
      19762.4      258.789
      19774.7      258.405
      19787.1      258.015
      19799.5      257.587
      19811.8      257.215
      19824.2      256.829
      19836.5      256.427
      19848.9      255.991
      19861.2      255.659
      19873.6      255.230
      19885.9      254.854
      19898.3      254.406
      19910.7      254.070
      19923.0      253.667
      19935.4      253.234
      19947.7      252.885
      19960.1      252.460
      19972.4      252.083
      19984.8      251.694
      19997.1      251.281
      20009.5      250.979
      20021.9      250.693
      20034.2      250.412
      20046.6      250.109
      20058.9      249.858
      20071.3      249.551
      20083.6      249.270
      20096.0      248.988
      20108.3      248.710
      20120.7      248.422
      20133.1      248.138
      20145.4      247.850
      20157.8      247.570
      20170.1      247.273
      20182.5      247.021
      20194.8      246.704
      20207.2      246.381
      20219.5      245.943
      20231.9      245.512
      20244.2      245.122
      20256.6      244.683
      20269.0      244.277
      20281.3      243.866
      20293.7      243.447
      20306.0      243.030
      20318.4      242.598
      20330.7      242.201
      20343.1      241.784
      20355.4      241.358
      20367.8      240.982
      20380.2      240.516
      20392.5      240.118
      20404.9      239.734
      20417.2      239.351
      20429.6      238.948
      20441.9      238.619
      20454.3      238.246
      20466.6      237.823
      20479.0      237.500
      20491.4      237.115
      20503.7      236.731
      20516.1      236.401
      20528.4      235.985
      20540.8      235.619
      20553.1      235.288
      20565.5      234.877
      20577.8      234.507
      20590.2      234.121
      20602.6      233.767
      20614.9      233.415
      20627.3      233.020
      20639.6      232.652
      20652.0      232.236
      20664.3      231.903
      20676.7      231.517
      20689.0      231.158
      20701.4      230.745
      20713.7      230.394
      20726.1      230.035
      20738.5      229.653
      20750.8      229.261
      20763.2      228.883
      20775.5      228.535
      20787.9      228.130
      20800.2      227.756
      20812.6      227.319
      20824.9      226.887
      20837.3      226.418
      20849.7      225.980
      20862.0      225.544
      20874.4      225.067
      20886.7      224.644
      20899.1      224.148
      20911.4      223.747
      20923.8      223.289
      20936.1      222.853
      20948.5      222.386
      20960.9      221.941
      20973.2      221.470
      20985.6      221.061
      20997.9      220.608
      21010.3      220.234
      21022.6      219.913
      21035.0      219.595
      21047.3      219.251
      21059.7      218.932
      21072.1      218.591
      21084.4      218.259
      21096.8      217.944
      21109.1      217.597
      21121.5      217.267
      21133.8      216.925
      21146.2      216.612
      21158.5      216.271
      21170.9      215.947
      21183.2      215.618
      21195.6      215.286
      21208.0      214.961
      21220.3      214.659
      21232.7      214.335
      21245.0      214.015
      21257.4      213.681
      21269.7      213.375
      21282.1      213.049
      21294.4      212.755
      21306.8      212.429
      21319.2      212.122
      21331.5      211.788
      21343.9      211.469
      21356.2      211.144
      21368.6      210.843
      21380.9      210.521
      21393.3      210.204
      21405.6      209.863
      21418.0      209.463
      21430.4      209.063
      21442.7      208.647
      21455.1      208.263
      21467.4      207.872
      21479.8      207.452
      21492.1      207.078
      21504.5      206.659
      21516.8      206.268
      21529.2      205.883
      21541.6      205.468
      21553.9      205.068
      21566.3      204.666
      21578.6      204.282
      21591.0      203.883
      21603.3      203.501
      21615.7      203.190
      21628.0      202.834
      21640.4      202.490
      21652.7      202.166
      21665.1      201.845
      21677.5      201.470
      21689.8      201.174
      21702.2      200.841
      21714.5      200.483
      21726.9      200.154
      21739.2      199.812
      21751.6      199.501
      21763.9      199.156
      21776.3      198.821
      21788.7      198.487
      21801.0      198.168
      21813.4      197.965
      21825.7      197.745
      21838.1      197.537
      21850.4      197.327
      21862.8      197.105
      21875.1      196.941
      21887.5      196.689
      21899.9      196.491
      21912.2      196.285
      21924.6      196.076
      21936.9      195.877
      21949.3      195.649
      21961.6      195.438
      21974.0      195.242
      21986.3      195.033
      21998.7      194.814
      22011.0      194.568
      22023.4      194.297
      22035.8      193.980
      22048.1      193.741
      22060.5      193.449
      22072.8      193.196
      22085.2      192.910
      22097.5      192.644
      22109.9      192.357
      22122.2      192.089
      22134.6      191.814
      22147.0      191.539
      22159.3      191.265
      22171.7      190.994
      22184.0      190.698
      22196.4      190.464
      22208.7      190.192
      22221.1      189.926
      22233.4      189.685
      22245.8      189.432
      22258.2      189.204
      22270.5      188.933
      22282.9      188.721
      22295.2      188.438
      22307.6      188.199
      22319.9      187.940
      22332.3      187.714
      22344.6      187.454
      22357.0      187.196
      22369.4      186.970
      22381.7      186.703
      22394.1      186.463
      22406.4      186.190
      22418.8      185.918
      22431.1      185.591
      22443.5      185.324
      22455.8      185.069
      22468.2      184.743
      22480.5      184.476
      22492.9      184.163
      22505.3      183.889
      22517.6      183.608
      22530.0      183.320
      22542.3      183.023
      22554.7      182.729
      22567.0      182.438
      22579.4      182.177
      22591.7      181.887
      22604.1      181.572
      22616.5      181.321
      22628.8      181.074
      22641.2      180.786
      22653.5      180.545
      22665.9      180.251
      22678.2      179.993
      22690.6      179.730
      22702.9      179.460
      22715.3      179.203
      22727.7      178.922
      22740.0      178.645
      22752.4      178.402
      22764.7      178.107
      22777.1      177.867
      22789.4      177.589
      22801.8      177.345
      22814.1      177.107
      22826.5      176.858
      22838.8      176.643
      22851.2      176.399
      22863.6      176.171
      22875.9      175.930
      22888.3      175.710
      22900.6      175.473
      22913.0      175.239
      22925.3      175.020
      22937.7      174.772
      22950.0      174.557
      22962.4      174.319
      22974.8      174.073
      22987.1      173.861
      22999.5      173.616
      23011.8      173.395
      23024.2      173.131
      23036.5      172.912
      23048.9      172.672
      23061.2      172.429
      23073.6      172.200
      23086.0      171.950
      23098.3      171.733
      23110.7      171.478
      23123.0      171.265
      23135.4      171.018
      23147.7      170.774
      23160.1      170.544
      23172.4      170.282
      23184.8      170.073
      23197.2      169.815
      23209.5      169.592
      23221.9      169.364
      23234.2      169.117
      23246.6      168.896
      23258.9      168.643
      23271.3      168.413
      23283.6      168.192
      23296.0      167.952
      23308.4      167.717
      23320.7      167.468
      23333.1      167.235
      23345.4      167.027
      23357.8      166.770
      23370.1      166.546
      23382.5      166.289
      23394.8      166.057
      23407.2      165.837
      23419.5      165.550
      23431.9      165.299
      23444.3      165.028
      23456.6      164.787
      23469.0      164.507
      23481.3      164.269
      23493.7      163.997
      23506.0      163.740
      23518.4      163.476
      23530.7      163.206
      23543.1      162.960
      23555.5      162.690
      23567.8      162.432
      23580.2      162.182
      23592.5      161.904
      23604.9      161.642
      23617.2      161.367
      23629.6      161.067
      23641.9      160.792
      23654.3      160.520
      23666.7      160.221
      23679.0      159.946
      23691.4      159.642
      23703.7      159.383
      23716.1      159.101
      23728.4      158.800
      23740.8      158.516
      23753.1      158.246
      23765.5      157.971
      23777.8      157.662
      23790.2      157.406
      23802.6      157.134
      23814.9      156.918
      23827.3      156.748
      23839.6      156.546
      23852.0      156.344
      23864.3      156.171
      23876.7      155.959
      23889.0      155.781
      23901.4      155.571
      23913.8      155.395
      23926.1      155.189
      23938.5      154.979
      23950.8      154.808
      23963.2      154.617
      23975.5      154.409
      23987.9      154.221
      24000.2      154.029
      24012.6      153.839
      24025.0      153.652
      24037.3      153.459
      24049.7      153.270
      24062.0      153.078
      24074.4      152.887
      24086.7      152.700
      24099.1      152.516
      24111.4      152.326
      24123.8      152.120
      24136.2      151.950
      24148.5      151.742
      24160.9      151.553
      24173.2      151.388
      24185.6      151.166
      24197.9      150.996
      24210.3      150.790
      24222.6      150.600
      24235.0      150.385
      24247.3      150.193
      24259.7      149.967
      24272.1      149.769
      24284.4      149.586
      24296.8      149.381
      24309.1      149.162
      24321.5      148.958
      24333.8      148.765
      24346.2      148.562
      24358.5      148.374
      24370.9      148.148
      24383.3      147.946
      24395.6      147.757
      24408.0      147.542
      24420.3      147.343
      24432.7      147.121
      24445.0      146.930
      24457.4      146.711
      24469.7      146.509
      24482.1      146.303
      24494.5      146.085
      24506.8      145.898
      24519.2      145.670
      24531.5      145.484
      24543.9      145.266
      24556.2      145.055
      24568.6      144.842
      24580.9      144.638
      24593.3      144.436
      24605.7      144.251
      24618.0      144.123
      24630.4      143.984
      24642.7      143.812
      24655.1      143.697
      24667.4      143.534
      24679.8      143.399
      24692.1      143.264
      24704.5      143.106
      24716.8      142.962
      24729.2      142.827
      24741.6      142.685
      24753.9      142.538
      24766.3      142.398
      24778.6      142.266
      24791.0      142.113
      24803.3      141.957
      24815.7      141.789
      24828.0      141.627
      24840.4      141.459
      24852.8      141.270
      24865.1      141.102
      24877.5      140.943
      24889.8      140.764
      24902.2      140.593
      24914.5      140.437
      24926.9      140.265
      24939.2      140.078
      24951.6      139.916
      24964.0      139.751
      24976.3      139.567
      24988.7      139.397
      25001.0      139.229
      25013.4      139.042
      25025.7      138.865
      25038.1      138.674
      25050.4      138.484
      25062.8      138.287
      25075.1      138.121
      25087.5      137.931
      25099.9      137.732
      25112.2      137.537
      25124.6      137.368
      25136.9      137.182
      25149.3      136.974
      25161.6      136.808
      25174.0      136.624
      25186.3      136.412
      25198.7      136.243
      25211.1      136.068
      25223.4      135.905
      25235.8      135.738
      25248.1      135.551
      25260.5      135.384
      25272.8      135.225
      25285.2      135.053
      25297.5      134.875
      25309.9      134.721
      25322.3      134.551
      25334.6      134.374
      25347.0      134.197
      25359.3      134.030
      25371.7      133.876
      25384.0      133.690
      25396.4      133.524
      25408.7      133.372
      25421.1      133.204
      25433.5      133.051
      25445.8      132.892
      25458.2      132.741
      25470.5      132.575
      25482.9      132.424
      25495.2      132.249
      25507.6      132.111
      25519.9      131.955
      25532.3      131.787
      25544.7      131.616
      25557.0      131.470
      25569.4      131.322
      25581.7      131.152
      25594.1      131.039
