# spectrum  Type     U-V    B-V    V-R    V-I    V-J    V-K
# ---------------------------------------------------------
# bpgs_68  M3V      2.66   1.44   1.16   2.47   3.71   4.60
#
# lambda (Angstroms)  flux (phot/lambda)
#----------------------------------------------------------
PHOTLAM
      1985.67    0.0454507
      1997.48     0.136683
      2009.29     0.247396
      2021.10     0.200070
      2032.91     0.198621
      2044.72     0.257724
      2056.53     0.326036
      2068.34     0.453507
      2080.15     0.549995
      2091.96     0.595355
      2103.77     0.387335
      2115.58     0.193547
      2127.39     0.510798
      2139.20     0.653489
      2151.01     0.200831
      2162.82     0.153801
      2174.63     0.208435
      2186.44     0.100940
      2198.25     0.179409
      2210.06     0.265285
      2221.87    0.0892694
      2233.68    0.0215962
      2245.49     0.236534
      2257.30     0.577123
      2269.11     0.575503
      2280.92     0.584480
      2292.73     0.240600
      2304.55     0.145585
      2316.36     0.264824
      2328.17     0.809396
      2339.98     0.886518
      2351.79     0.390624
      2363.60     0.644236
      2375.41     0.952864
      2387.22     0.881900
      2399.03     0.645598
      2410.84     0.224498
      2422.65     0.668607
      2434.46     0.698014
      2446.27     0.624356
      2458.08     0.979211
      2469.89      1.07700
      2481.70      1.07734
      2493.51     0.836248
      2505.32     0.918814
      2517.13     0.920287
      2528.94     0.943922
      2540.75      1.44436
      2552.56      1.47093
      2564.37      1.55479
      2576.18      1.27522
      2587.99     0.972099
      2599.80      1.17262
      2611.61      1.24922
      2623.42      2.02392
      2635.23      2.59846
      2647.04      3.57600
      2658.85      3.43465
      2670.66      3.67500
      2682.47      3.58802
      2694.28      3.91366
      2706.09      3.35433
      2717.90      3.36778
      2729.71      3.02808
      2741.52      3.58222
      2753.33      4.16763
      2765.14      5.09670
      2776.95      5.60818
      2788.76      8.30900
      2800.58      21.6854
      2812.39      9.55965
      2824.20      5.13258
      2836.01      5.62277
      2847.82      6.95610
      2859.63      7.19005
      2871.44      7.72097
      2883.25      7.57252
      2895.06      7.57307
      2906.87      8.20214
      2918.68      10.5483
      2930.49      11.2766
      2942.30      10.3757
      2954.11      8.51206
      2965.92      8.30557
      2977.73      8.11310
      2989.54      10.9471
      3001.35      10.9120
      3013.16      10.4102
      3024.97      9.94009
      3036.78      14.4648
      3048.59      13.0396
      3060.40      10.2412
      3072.21      11.2305
      3084.02      14.3520
      3095.83      15.0105
      3107.64      20.1129
      3119.45      19.8518
      3131.26      15.3086
      3143.07      12.7924
      3154.88      20.5428
      3166.69      14.5277
      3178.50      17.0246
      3190.31      21.7034
      3202.12      25.4052
      3213.93      24.3968
      3225.74      25.7067
      3237.55      29.5795
      3249.36      29.2900
      3261.17      25.3263
      3272.99      19.4389
      3284.80      26.1896
      3296.61      27.7052
      3308.42      26.0800
      3320.23      28.7206
      3332.04      37.0389
      3343.85      40.0537
      3355.66      29.8738
      3367.47      38.4946
      3379.28      39.0601
      3391.09      28.9164
      3402.90      38.9691
      3414.71      41.1139
      3426.52      49.6401
      3438.33      42.9346
      3450.14      38.4976
      3461.95      49.2418
      3473.76      51.6118
      3485.57      52.9827
      3497.38      55.0219
      3509.19      53.5472
      3521.00      56.7640
      3532.81      62.1041
      3544.62      67.8035
      3556.43      61.9205
      3568.24      59.1437
      3580.05      57.7207
      3591.86      55.8589
      3603.67      53.9738
      3615.48      52.0286
      3627.29      66.0745
      3639.10      67.6567
      3650.91      65.8991
      3662.72      75.2468
      3674.53      66.4260
      3686.34      72.1558
      3698.15      85.1712
      3709.96      75.5727
      3721.77      72.7892
      3733.58      63.3398
      3745.39      57.7503
      3757.20      74.6912
      3769.01      82.1448
      3780.82      87.5078
      3792.64      82.1350
      3804.45      85.8597
      3816.26      84.3666
      3828.07      74.1563
      3839.88      72.8561
      3851.69      79.4536
      3863.50      91.9182
      3875.31      101.998
      3887.12      96.1593
      3898.93      88.0162
      3910.74      108.490
      3922.55      108.092
      3934.36      95.6859
      3946.17      103.268
      3957.98      117.832
      3969.79      124.962
      3981.60      153.149
      3993.41      174.000
      4005.22      191.011
      4017.03      209.275
      4028.84      198.637
      4040.65      186.379
      4052.46      187.602
      4064.27      191.502
      4076.08      201.652
      4087.89      205.790
      4099.70      200.700
      4111.51      194.443
      4123.32      212.588
      4135.13      219.921
      4146.94      236.106
      4158.75      247.681
      4170.56      251.979
      4182.37      234.432
      4194.18      219.621
      4205.99      178.599
      4217.80      132.790
      4229.61      137.446
      4241.42      168.756
      4253.23      180.917
      4265.04      196.380
      4276.85      196.859
      4288.66      200.755
      4300.48      204.044
      4312.29      225.476
      4324.10      243.779
      4335.91      257.842
      4347.72      282.748
      4359.53      281.111
      4371.34      274.818
      4383.15      269.047
      4394.96      301.223
      4406.77      316.427
      4418.58      333.627
      4430.39      339.743
      4442.20      347.566
      4454.01      368.024
      4465.82      390.054
      4477.63      414.380
      4489.44      440.794
      4501.25      446.523
      4513.06      454.159
      4524.87      457.397
      4536.68      472.337
      4548.49      506.136
      4560.30      535.227
      4572.11      534.789
      4583.92      525.186
      4595.73      532.851
      4607.54      564.276
      4619.35      558.286
      4631.16      537.686
      4642.97      539.407
      4654.78      572.961
      4666.59      562.439
      4678.40      550.335
      4690.21      560.089
      4702.02      584.859
      4713.83      572.242
      4725.64      575.865
      4737.45      584.140
      4749.26      565.870
      4761.07      502.095
      4772.89      476.576
      4784.70      503.636
      4796.51      529.614
      4808.32      523.012
      4820.13      527.486
      4831.94      539.370
      4843.75      547.434
      4855.56      530.114
      4867.37      554.455
      4879.18      582.035
      4890.99      607.407
      4902.80      648.570
      4914.61      681.012
      4926.42      716.420
      4938.23      708.444
      4950.04      633.395
      4961.85      568.698
      4973.66      596.896
      4985.47      599.559
      4997.28      563.176
      5009.09      563.118
      5020.90      575.339
      5032.71      603.188
      5044.52      638.802
      5056.33      633.944
      5068.14      629.019
      5079.95      644.028
      5091.76      647.253
      5103.57      652.505
      5115.38      674.871
      5127.19      683.157
      5139.00      707.003
      5150.81      698.833
      5162.62      631.881
      5174.43      559.556
      5186.24      610.582
      5198.05      637.975
      5209.86      694.378
      5221.67      797.199
      5233.48      827.742
      5245.29      831.716
      5257.11      800.785
      5268.92      818.666
      5280.73      884.309
      5292.54      914.691
      5304.35      937.683
      5316.16      937.761
      5327.97      930.429
      5339.78      970.279
      5351.59      1011.75
      5363.40      1029.40
      5375.21      1064.22
      5387.02      1093.47
      5398.83      1065.10
      5410.64      1115.95
      5422.45      1165.65
      5434.26      1130.50
      5446.07      1056.47
      5457.88      969.410
      5469.69      980.889
      5481.50      1027.99
      5493.31      1029.02
      5505.12      974.853
      5516.93      966.189
      5528.74      985.272
      5540.55      986.459
      5552.36      1007.01
      5564.17      1046.68
      5575.98      1090.27
      5587.79      1072.13
      5599.60      1040.76
      5611.41      1023.79
      5623.22      1034.32
      5635.03      1054.52
      5646.84      1091.32
      5658.65      1118.32
      5670.46      1115.92
      5682.27      1155.75
      5694.08      1201.65
      5705.89      1251.17
      5717.70      1275.13
      5729.51      1298.18
      5741.32      1353.17
      5753.13      1367.72
      5764.94      1370.93
      5776.75      1366.36
      5788.57      1371.34
      5800.38      1377.22
      5812.19      1365.03
      5824.00      1339.69
      5835.81      1295.34
      5847.62      1235.92
      5859.43      1159.03
      5871.24      1020.56
      5883.05      910.846
      5894.86      899.123
      5906.67      946.404
      5918.48      1032.84
      5930.29      1078.93
      5942.10      1113.02
      5953.91      1144.09
      5965.72      1167.02
      5977.53      1183.11
      5989.34      1224.62
      6001.15      1272.07
      6012.96      1307.06
      6024.77      1350.27
      6036.58      1407.00
      6048.39      1455.62
      6060.20      1499.21
      6072.01      1536.70
      6083.82      1565.23
      6095.63      1578.22
      6107.44      1575.52
      6119.25      1559.92
      6131.06      1519.77
      6142.87      1450.56
      6154.68      1322.92
      6166.49      1223.00
      6178.30      1152.63
      6190.11      1126.01
      6201.92      1111.02
      6213.73      1093.10
      6225.54      1081.99
      6237.35      1081.89
      6249.16      1135.34
      6260.97      1209.29
      6272.79      1284.60
      6284.60      1356.88
      6296.41      1425.01
      6308.22      1510.39
      6320.03      1599.88
      6331.84      1662.56
      6343.65      1709.25
      6355.46      1733.50
      6367.27      1752.03
      6379.08      1771.76
      6390.89      1828.89
      6402.70      1897.22
      6414.51      1972.35
      6426.32      2041.38
      6438.13      2102.10
      6449.94      2131.92
      6461.75      2159.77
      6473.56      2212.30
      6485.37      2245.76
      6497.18      2258.25
      6508.99      2346.68
      6520.80      2453.18
      6532.61      2503.47
      6544.42      2490.85
      6556.23      2391.91
      6568.04      2339.94
      6579.85      2316.03
      6591.66      2308.48
      6603.47      2289.23
      6615.28      2239.36
      6627.09      2161.25
      6638.90      2068.14
      6650.71      2008.73
      6662.52      1953.73
      6674.33      1888.35
      6686.14      1829.79
      6697.95      1779.51
      6709.76      1746.82
      6721.57      1722.48
      6733.38      1707.61
      6745.19      1694.19
      6757.00      1681.64
      6768.82      1674.84
      6780.63      1667.63
      6792.44      1646.96
      6804.25      1637.22
      6816.06      1649.17
      6827.87      1682.60
      6839.68      1718.90
      6851.49      1698.46
      6863.30      1694.75
      6875.11      1751.40
      6886.92      1831.31
      6898.73      1928.24
      6910.54      2041.58
      6922.35      2155.03
      6934.16      2257.03
      6945.97      2335.26
      6957.78      2392.94
      6969.59      2477.74
      6981.40      2565.93
      6993.21      2632.06
      7005.02      2711.67
      7016.83      2809.76
      7028.64      2862.87
      7040.45      2880.71
      7052.26      2820.64
      7064.07      2708.59
      7075.88      2528.26
      7087.69      2430.15
      7099.50      2376.64
      7111.31      2294.51
      7123.12      2214.12
      7134.93      2152.03
      7146.74      2179.80
      7158.55      2276.89
      7170.36      2376.65
      7182.17      2463.62
      7193.98      2510.49
      7205.79      2562.70
      7217.60      2627.57
      7229.41      2749.67
      7241.22      2888.46
      7253.03      3012.91
      7264.84      3134.83
      7276.65      3255.24
      7288.46      3368.08
      7300.28      3480.06
      7312.09      3607.66
      7323.90      3714.42
      7335.71      3778.94
      7347.52      3852.66
      7359.33      3935.01
      7371.14      4031.82
      7382.95      4117.76
      7394.76      4169.00
      7406.57      4196.68
      7418.38      4208.45
      7430.19      4241.33
      7442.00      4282.81
      7453.81      4331.33
      7465.62      4367.60
      7477.43      4390.19
      7489.24      4416.11
      7501.05      4447.94
      7512.86      4497.82
      7524.67      4527.98
      7536.48      4526.73
      7548.29      4539.01
      7560.10      4534.92
      7571.91      4397.06
      7583.72      4228.90
      7595.53      4050.77
      7607.34      4197.51
      7619.15      4499.99
      7630.96      4375.38
      7642.77      4170.49
      7654.58      4005.30
      7666.39      3788.98
      7678.20      3550.48
      7690.01      3579.77
      7701.82      3691.11
      7713.63      3807.24
      7725.44      3881.42
      7737.25      3904.25
      7749.06      3886.34
      7760.88      3869.46
      7772.69      3928.42
      7784.49      4002.62
      7796.31      4085.30
      7808.12      4146.86
      7819.93      4190.48
      7831.74      4191.06
      7843.55      4223.81
      7855.36      4334.74
      7867.17      4383.62
      7878.98      4393.63
      7890.79      4449.00
      7902.60      4499.61
      7914.41      4509.71
      7926.22      4581.66
      7938.03      4708.27
      7949.84      4782.61
      7961.65      4840.98
      7973.46      4898.89
      7985.27      4940.35
      7997.08      4963.12
      8008.89      5025.83
      8020.70      5098.27
      8032.51      5141.22
      8044.32      5198.87
      8056.13      5284.76
      8067.94      5314.91
      8079.75      5312.40
      8091.56      5301.35
      8103.37      5313.75
      8115.18      5379.96
      8126.99      5414.46
      8138.80      5415.16
      8150.61      5334.49
      8162.42      5247.17
      8174.23      5199.45
      8186.04      5186.78
      8197.85      5205.14
      8209.66      5218.12
      8221.47      5263.76
      8233.28      5431.01
      8245.10      5558.96
      8256.90      5614.65
      8268.71      5542.06
      8280.52      5426.15
      8292.34      5374.00
      8304.15      5354.83
      8315.96      5373.36
      8327.76      5350.86
      8339.58      5305.49
      8351.39      5274.56
      8363.20      5276.12
      8375.01      5342.94
      8386.82      5400.38
      8398.63      5444.73
      8410.44      5460.73
      8422.25      5437.72
      8434.06      5321.64
      8445.87      5227.06
      8457.68      5163.06
      8469.49      5126.35
      8481.30      5100.45
      8493.11      5079.85
      8504.92      5085.59
      8516.73      5125.08
      8528.54      5177.90
      8540.35      5232.71
      8552.16      5274.04
      8563.97      5345.88
      8575.78      5473.96
      8587.59      5466.26
      8599.40      5391.63
      8611.21      5430.83
      8623.02      5504.91
      8634.83      5599.37
      8646.64      5552.17
      8658.45      5407.48
      8670.26      5432.69
      8682.07      5488.53
      8693.88      5491.96
      8705.69      5565.38
      8717.50      5710.31
      8729.31      5721.65
      8741.12      5680.74
      8752.93      5633.16
      8764.74      5649.67
      8776.55      5755.05
      8788.37      5801.35
      8800.18      5818.30
      8811.99      5841.61
      8823.80      5851.45
      8835.61      5835.37
      8847.42      5817.47
      8859.23      5793.67
      8871.04      5742.76
      8882.85      5718.64
      8894.66      5775.84
      8906.47      5700.60
      8918.28      5526.25
      8930.09      5543.35
      8941.90      5594.41
      8953.71      5576.80
      8965.52      5618.07
      8977.33      5726.19
      8989.14      5701.91
      9000.95      5670.25
      9012.76      5823.07
      9024.57      6014.38
      9036.38      6222.27
      9048.19      6217.10
      9060.00      6112.31
      9071.81      6063.64
      9083.62      6062.64
      9095.43      6136.25
      9107.24      6175.00
      9119.05      6177.89
      9130.86      6098.43
      9142.67      6052.55
      9154.48      6138.60
      9166.29      6234.67
      9178.10      6330.18
      9189.91      6392.95
      9201.72      6422.81
      9213.53      6370.90
      9225.34      6305.66
      9237.15      6231.68
      9248.96      6134.62
      9260.78      6004.74
      9272.58      5765.98
      9284.40      5527.82
      9296.21      5316.52
      9308.02      5233.82
      9319.83      5240.45
      9331.64      5367.50
      9343.45      5467.14
      9355.26      5466.78
      9367.07      5535.16
      9378.88      5668.15
      9390.69      5916.00
      9402.50      6013.56
      9414.31      5632.91
      9426.12      5415.60
      9437.93      5401.74
      9449.74      5644.51
      9461.55      5879.44
      9473.36      5788.24
      9485.17      5733.87
      9496.98      5767.57
      9508.79      5826.62
      9520.60      5872.09
      9532.41      5806.13
      9544.22      5823.30
      9556.03      6002.12
      9567.84      6107.61
      9579.65      6145.21
      9591.46      6029.42
      9603.27      5966.84
      9615.08      6084.69
      9626.89      6064.78
      9638.70      5972.10
      9650.51      6198.89
      9662.32      6420.59
      9674.13      6389.62
      9685.94      6357.98
      9697.75      6347.46
      9709.56      6389.90
      9721.37      6431.68
      9733.18      6400.61
      9744.99      6410.32
      9756.80      6484.86
      9768.62      6568.34
      9780.43      6663.89
      9792.24      6800.64
      9804.04      6839.74
      9815.86      6707.22
      9827.67      6676.23
      9839.48      6700.81
      9851.29      6673.36
      9863.10      6602.49
      9874.91      6460.31
      9886.72      6334.84
      9898.53      6235.32
      9910.34      6223.59
      9922.15      6265.06
      9933.96      6391.93
      9945.77      6487.85
      9957.58      6540.47
      9969.39      6549.15
      9981.20      6538.17
      9993.01      6515.49
      10004.8      6513.31
      10016.6      6544.10
      10028.4      6630.43
      10040.3      6719.56
      10052.1      6691.33
      10063.9      6716.84
      10075.7      6874.43
      10087.5      6924.02
      10099.3      6892.57
      10111.1      6785.25
      10122.9      6681.88
      10134.7      6625.85
      10146.5      6658.79
      10158.4      6756.04
      10170.2      6790.41
      10182.0      6788.83
      10193.8      6736.03
      10205.6      6731.02
      10217.4      6779.89
      10229.2      6807.13
      10241.0      6788.26
      10252.8      6617.02
      10264.6      6539.46
      10276.5      6625.92
      10288.3      6682.89
      10300.1      6713.73
      10311.9      6689.61
      10323.7      6677.81
      10335.5      6706.00
      10347.3      6662.88
      10359.1      6597.08
      10370.9      6727.15
      10382.7      6844.67
      10394.6      6817.22
      10406.4      6752.54
      10418.2      6674.98
      10430.0      6707.62
      10441.8      6769.55
      10453.6      6817.69
      10465.4      6960.10
      10477.2      7199.21
      10489.0      7221.60
      10500.8      7151.42
      10512.7      7057.72
      10524.5      7020.46
      10536.3      7071.12
      10548.1      7055.46
      10559.9      6998.80
      10571.7      6916.41
      10583.5      6870.53
      10595.3      6904.90
      10607.1      6919.14
      10619.0      6916.09
      10630.8      6912.60
      10642.6      6909.76
      10654.4      6906.82
      10666.2      6903.66
      10678.0      6900.68
      10689.8      6897.52
      10701.6      6894.31
      10713.4      6891.51
      10725.2      6888.18
      10737.1      6885.54
      10748.9      6882.28
      10760.7      6879.21
      10772.5      6875.89
      10784.3      6873.14
      10796.1      6869.82
      10807.9      6864.22
      10819.7      6857.81
      10831.5      6851.04
      10843.3      6844.11
      10855.2      6837.57
      10867.0      6830.32
      10878.8      6824.20
      10890.6      6817.13
      10902.4      6810.24
      10914.2      6803.71
      10926.0      6796.68
      10937.8      6790.09
      10949.6      6783.32
      10961.4      6776.41
      10973.3      6770.04
      10985.1      6762.81
      10996.9      6756.53
      11008.7      6747.49
      11020.5      6738.40
      11032.3      6729.50
      11044.1      6720.06
      11055.9      6711.01
      11067.7      6701.68
      11079.6      6692.28
      11091.4      6683.38
      11103.2      6673.77
      11115.0      6664.69
      11126.8      6655.89
      11138.6      6646.37
      11150.4      6636.86
      11162.2      6628.06
      11174.0      6618.96
      11185.8      6609.37
      11197.7      6600.29
      11209.5      6590.36
      11221.3      6579.52
      11233.1      6569.14
      11244.9      6559.48
      11256.7      6548.75
      11268.5      6538.09
      11280.3      6528.04
      11292.1      6517.16
      11303.9      6507.55
      11315.8      6496.64
      11327.6      6486.50
      11339.4      6475.97
      11351.2      6465.84
      11363.0      6455.26
      11374.8      6444.94
      11386.6      6434.28
      11398.4      6424.22
      11410.2      6413.97
      11422.0      6403.15
      11433.9      6392.91
      11445.7      6382.67
      11457.5      6371.80
      11469.3      6361.90
      11481.1      6351.27
      11492.9      6340.85
      11504.7      6330.33
      11516.5      6319.80
      11528.3      6309.58
      11540.2      6298.80
      11552.0      6288.84
      11563.8      6278.18
      11575.6      6268.02
      11587.4      6257.14
      11599.2      6247.25
      11611.0      6237.45
      11622.8      6228.08
      11634.6      6218.56
      11646.4      6208.92
      11658.3      6199.63
      11670.1      6190.43
      11681.9      6180.59
      11693.7      6171.40
      11705.5      6161.71
      11717.3      6152.30
      11729.1      6143.01
      11740.9      6133.46
      11752.7      6123.83
      11764.5      6114.77
      11776.4      6105.09
      11788.2      6095.74
      11800.0      6086.49
      11811.8      6078.65
      11823.6      6070.93
      11835.4      6063.55
      11847.2      6055.88
      11859.0      6048.40
      11870.8      6040.97
      11882.6      6033.04
      11894.5      6025.91
      11906.3      6017.62
      11918.1      6010.75
      11929.9      6002.95
      11941.7      5995.38
      11953.5      5987.81
      11965.3      5980.17
      11977.1      5972.77
      11988.9      5965.08
      12000.7      5958.24
      12012.6      5952.58
      12024.4      5948.45
      12036.2      5943.50
      12048.0      5938.57
      12059.8      5933.50
      12071.6      5929.18
      12083.4      5924.39
      12095.2      5919.56
      12107.0      5914.61
      12118.9      5910.17
      12130.7      5905.50
      12142.5      5900.35
      12154.3      5895.41
      12166.1      5891.09
      12177.9      5885.95
      12189.7      5881.67
      12201.5      5877.30
      12213.3      5875.85
      12225.1      5874.86
      12237.0      5873.74
      12248.8      5872.78
      12260.6      5871.00
      12272.4      5870.40
      12284.2      5869.29
      12296.0      5867.72
      12307.8      5867.23
      12319.6      5865.49
      12331.4      5864.57
      12343.2      5863.22
      12355.1      5862.32
      12366.9      5861.22
      12378.7      5860.22
      12390.5      5859.03
      12402.3      5859.04
      12414.1      5863.70
      12425.9      5868.41
      12437.7      5873.03
      12449.5      5877.56
      12461.3      5882.36
      12473.2      5887.44
      12485.0      5891.66
      12496.8      5896.48
      12508.6      5901.12
      12520.4      5905.91
      12532.2      5910.66
      12544.0      5915.53
      12555.8      5920.19
      12567.6      5924.63
      12579.5      5929.51
      12591.3      5934.09
      12603.1      5937.84
      12614.9      5939.57
      12626.7      5941.18
      12638.5      5942.40
      12650.3      5943.80
      12662.1      5945.57
      12673.9      5946.69
      12685.7      5948.45
      12697.6      5949.60
      12709.4      5951.31
      12721.2      5952.66
      12733.0      5954.30
      12744.8      5955.68
      12756.6      5957.46
      12768.4      5958.67
      12780.2      5959.99
      12792.0      5961.56
      12803.8      5960.71
      12815.7      5956.34
      12827.5      5951.60
      12839.3      5946.89
      12851.1      5942.39
      12862.9      5937.58
      12874.7      5933.21
      12886.5      5928.10
      12898.3      5923.51
      12910.1      5919.04
      12921.9      5914.07
      12933.8      5909.60
      12945.6      5905.08
      12957.4      5900.06
      12969.2      5895.50
      12981.0      5890.76
      12992.8      5886.06
      13004.6      5878.09
      13016.4      5864.12
      13028.2      5850.89
      13040.1      5836.72
      13051.9      5823.41
      13063.7      5809.80
      13075.5      5795.84
      13087.3      5782.57
      13099.1      5768.75
      13110.9      5755.21
      13122.7      5741.45
      13134.5      5727.84
      13146.3      5714.08
      13158.2      5700.46
      13170.0      5686.69
      13181.8      5673.26
      13193.6      5659.59
      13205.4      5642.16
      13217.2      5620.76
      13229.0      5599.64
      13240.8      5577.88
      13252.6      5556.30
      13264.4      5535.00
      13276.3      5513.68
      13288.1      5491.79
      13299.9      5470.73
      13311.7      5449.25
      13323.5      5427.41
      13335.3      5406.41
      13347.1      5384.54
      13358.9      5363.33
      13370.7      5341.96
      13382.5      5320.52
      13394.4      5298.86
      13406.2      5273.95
      13418.0      5246.29
      13429.8      5218.31
      13441.6      5190.70
      13453.4      5162.84
      13465.2      5134.99
      13477.0      5107.29
      13488.8      5079.42
      13500.6      5051.24
      13512.5      5023.67
      13524.3      4995.91
      13536.1      4968.21
      13547.9      4939.96
      13559.7      4912.62
      13571.5      4884.47
      13583.3      4856.73
      13595.1      4829.02
      13606.9      4811.11
      13618.8      4800.03
      13630.6      4789.08
      13642.4      4778.13
      13654.2      4767.06
      13666.0      4756.28
      13677.8      4745.25
      13689.6      4734.13
      13701.4      4723.15
      13713.2      4712.29
      13725.0      4701.46
      13736.9      4690.27
      13748.7      4679.33
      13760.5      4668.40
      13772.3      4657.54
      13784.1      4646.32
      13795.9      4635.91
      13807.7      4631.83
      13819.5      4631.94
      13831.3      4632.24
      13843.1      4632.15
      13855.0      4632.71
      13866.8      4632.64
      13878.6      4632.78
      13890.4      4633.27
      13902.2      4633.19
      13914.0      4633.18
      13925.8      4633.52
      13937.6      4633.78
      13949.4      4633.70
      13961.2      4634.22
      13973.1      4634.16
      13984.9      4634.30
      13996.7      4634.81
      14008.5      4632.92
      14020.3      4631.06
      14032.1      4628.94
      14043.9      4627.00
      14055.7      4624.76
      14067.5      4622.58
      14079.4      4620.67
      14091.2      4618.83
      14103.0      4616.44
      14114.8      4614.53
      14126.6      4612.05
      14138.4      4610.48
      14150.2      4608.35
      14162.0      4606.01
      14173.8      4604.18
      14185.6      4601.94
      14197.5      4599.65
      14209.3      4596.80
      14221.1      4593.06
      14232.9      4589.51
      14244.7      4585.68
      14256.5      4582.35
      14268.3      4578.64
      14280.1      4575.31
      14291.9      4571.36
      14303.7      4567.89
      14315.6      4564.11
      14327.4      4561.01
      14339.2      4556.98
      14351.0      4553.38
      14362.8      4550.12
      14374.6      4546.28
      14386.4      4542.72
      14398.2      4539.25
      14410.0      4536.87
      14421.8      4534.61
      14433.7      4532.90
      14445.5      4530.59
      14457.3      4528.39
      14469.1      4526.61
      14480.9      4524.48
      14492.7      4522.12
      14504.5      4520.41
      14516.3      4517.99
      14528.1      4516.12
      14540.0      4514.15
      14551.8      4511.79
      14563.6      4510.08
      14575.4      4507.82
      14587.2      4505.75
      14599.0      4503.97
      14610.8      4503.92
      14622.6      4503.99
      14634.4      4504.51
      14646.2      4505.02
      14658.1      4505.27
      14669.9      4505.45
      14681.7      4506.30
      14693.5      4506.20
      14705.3      4506.76
      14717.1      4506.98
      14728.9      4507.45
      14740.7      4507.71
      14752.5      4508.25
      14764.3      4508.56
      14776.2      4508.71
      14788.0      4509.29
      14799.8      4509.81
      14811.6      4512.75
      14823.4      4515.52
      14835.2      4519.06
      14847.0      4521.56
      14858.8      4525.09
      14870.6      4527.92
      14882.4      4531.11
      14894.3      4534.52
      14906.1      4537.06
      14917.9      4540.44
      14929.7      4543.39
      14941.5      4546.45
      14953.3      4549.91
      14965.1      4552.59
      14976.9      4555.80
      14988.7      4558.95
      15000.5      4562.55
      15012.4      4567.11
      15024.2      4573.03
      15036.0      4577.88
      15047.8      4583.13
      15059.6      4588.91
      15071.4      4594.06
      15083.2      4599.16
      15095.0      4604.40
      15106.8      4610.00
      15118.7      4615.12
      15130.5      4620.60
      15142.3      4625.63
      15154.1      4631.32
      15165.9      4636.64
      15177.7      4641.75
      15189.5      4647.02
      15201.3      4652.71
      15213.1      4659.02
      15224.9      4666.15
      15236.8      4673.02
      15248.6      4679.50
      15260.4      4686.36
      15272.2      4693.13
      15284.0      4700.07
      15295.8      4706.66
      15307.6      4713.52
      15319.4      4720.06
      15331.2      4726.98
      15343.0      4733.67
      15354.9      4740.62
      15366.7      4747.17
      15378.5      4754.30
      15390.3      4760.67
      15402.1      4767.94
      15413.9      4775.23
      15425.7      4782.71
      15437.5      4790.14
      15449.3      4797.71
      15461.1      4805.41
      15473.0      4812.59
      15484.8      4820.24
      15496.6      4827.89
      15508.4      4835.21
      15520.2      4842.80
      15532.0      4850.21
      15543.8      4857.74
      15555.6      4865.24
      15567.4      4872.68
      15579.3      4880.30
      15591.1      4887.74
      15602.9      4895.24
      15614.7      4902.34
      15626.5      4909.98
      15638.3      4916.96
      15650.1      4924.48
      15661.9      4931.56
      15673.7      4938.96
      15685.5      4946.26
      15697.4      4953.63
      15709.2      4960.87
      15721.0      4968.01
      15732.8      4975.59
      15744.6      4982.61
      15756.4      4990.02
      15768.2      4997.14
      15780.0      5004.80
      15791.8      5012.12
      15803.6      5018.70
      15815.5      5025.03
      15827.3      5031.07
      15839.1      5037.27
      15850.9      5043.34
      15862.7      5049.96
      15874.5      5055.71
      15886.3      5061.81
      15898.1      5068.14
      15909.9      5074.27
      15921.8      5080.39
      15933.6      5086.63
      15945.4      5092.74
      15957.2      5098.99
      15969.0      5105.05
      15980.8      5111.03
      15992.6      5117.70
      16004.4      5122.48
      16016.2      5126.77
      16028.0      5130.57
      16039.8      5134.71
      16051.7      5138.26
      16063.5      5142.71
      16075.3      5146.40
      16087.1      5150.24
      16098.9      5154.43
      16110.7      5158.18
      16122.5      5162.04
      16134.3      5166.31
      16146.1      5170.28
      16158.0      5174.16
      16169.8      5177.83
      16181.6      5181.99
      16193.4      5186.01
      16205.2      5188.48
      16217.0      5188.86
      16228.8      5190.00
      16240.6      5190.74
      16252.4      5191.40
      16264.2      5192.17
      16276.1      5192.63
      16287.9      5193.61
      16299.7      5194.09
      16311.5      5195.11
      16323.3      5195.70
      16335.1      5196.53
      16346.9      5196.94
      16358.7      5197.88
      16370.5      5198.62
      16382.3      5198.99
      16394.2      5200.24
      16406.0      5198.46
      16417.8      5195.69
      16429.6      5192.08
      16441.4      5188.01
      16453.2      5185.64
      16465.0      5181.87
      16476.8      5178.78
      16488.6      5175.14
      16500.5      5171.84
      16512.3      5168.82
      16524.1      5165.37
      16535.9      5161.97
      16547.7      5158.46
      16559.5      5155.43
      16571.3      5152.19
      16583.1      5148.20
      16594.9      5145.03
      16606.7      5140.29
      16618.6      5133.82
      16630.4      5127.22
      16642.2      5120.86
      16654.0      5114.71
      16665.8      5108.42
      16677.6      5101.54
      16689.4      5094.83
      16701.2      5088.94
      16713.0      5082.62
      16724.8      5075.68
      16736.7      5070.16
      16748.5      5063.10
      16760.3      5056.52
      16772.1      5050.56
      16783.9      5043.87
      16795.7      5037.35
      16807.5      5030.09
      16819.3      5021.52
      16831.1      5014.05
      16842.9      5005.46
      16854.8      4997.59
      16866.6      4989.45
      16878.4      4980.56
      16890.2      4972.96
      16902.0      4964.96
      16913.8      4956.81
      16925.6      4948.16
      16937.4      4940.29
      16949.2      4932.39
      16961.1      4923.65
      16972.9      4915.80
      16984.7      4907.37
      16996.5      4899.29
      17008.3      4890.64
      17020.1      4880.57
      17031.9      4870.96
      17043.7      4861.20
      17055.5      4851.59
      17067.3      4841.91
      17079.2      4832.09
      17091.0      4822.28
      17102.8      4813.16
      17114.6      4802.84
      17126.4      4793.61
      17138.2      4783.55
      17150.0      4773.78
      17161.8      4764.45
      17173.6      4754.93
      17185.4      4745.09
      17197.3      4735.35
      17209.1      4724.41
      17220.9      4713.05
      17232.7      4701.96
      17244.5      4690.19
      17256.3      4679.82
      17268.1      4667.47
      17279.9      4657.10
      17291.7      4645.25
      17303.5      4634.19
      17315.4      4622.86
      17327.2      4611.25
      17339.0      4600.62
      17350.8      4588.76
      17362.6      4577.77
      17374.4      4566.85
      17386.2      4554.91
      17398.0      4543.71
      17409.8      4531.28
      17421.6      4518.45
      17433.5      4506.24
      17445.3      4493.39
      17457.1      4480.04
      17468.9      4467.72
      17480.7      4455.11
      17492.5      4442.48
      17504.3      4429.63
      17516.1      4416.49
      17527.9      4404.37
      17539.7      4391.55
      17551.6      4378.16
      17563.4      4365.97
      17575.2      4353.39
      17587.0      4340.69
      17598.8      4327.46
      17610.6      4314.69
      17622.4      4301.28
      17634.2      4288.68
      17646.0      4275.56
      17657.9      4262.26
      17669.7      4249.14
      17681.5      4236.15
      17693.3      4223.29
      17705.1      4209.99
      17716.9      4197.22
      17728.7      4183.48
      17740.5      4170.95
      17752.3      4157.57
      17764.1      4144.44
      17776.0      4131.21
      17787.8      4118.48
      17799.6      4105.63
      17811.4      4093.23
      17823.2      4081.16
      17835.0      4068.97
      17846.8      4056.61
      17858.6      4044.75
      17870.4      4032.50
      17882.2      4020.93
      17894.1      4007.99
      17905.9      3996.67
      17917.7      3984.06
      17929.5      3972.18
      17941.3      3960.03
      17953.1      3947.97
      17964.9      3935.85
      17976.7      3923.81
      17988.5      3911.65
      18000.4      3899.53
      18012.2      3889.78
      18024.0      3879.58
      18035.8      3869.45
      18047.6      3859.23
      18059.4      3849.97
      18071.2      3839.54
      18083.0      3829.00
      18094.8      3819.64
      18106.6      3809.52
      18118.5      3799.11
      18130.3      3789.11
      18142.1      3779.52
      18153.9      3769.09
      18165.7      3759.45
      18177.5      3749.26
      18189.3      3739.11
      18201.1      3729.54
      18212.9      3721.86
      18224.7      3713.41
      18236.6      3705.67
      18248.4      3698.03
      18260.2      3689.92
      18272.0      3681.92
      18283.8      3674.25
      18295.6      3666.54
      18307.4      3658.25
      18319.2      3650.40
      18331.0      3642.83
      18342.8      3634.88
      18354.7      3626.50
      18366.5      3619.37
      18378.3      3610.89
      18390.1      3603.44
      18401.9      3595.43
      18413.7      3589.87
      18425.5      3583.22
      18437.3      3577.49
      18449.1      3570.88
      18460.9      3565.31
      18472.8      3559.01
      18484.6      3552.55
      18496.4      3546.82
      18508.2      3540.94
      18520.0      3534.74
      18531.8      3528.14
      18543.6      3522.29
      18555.4      3516.62
      18567.2      3510.26
      18579.1      3503.66
      18590.9      3498.05
      18602.7      3492.07
      18614.5      3487.33
      18626.3      3482.72
      18638.1      3477.94
      18649.9      3473.29
      18661.7      3468.02
      18673.5      3463.58
      18685.3      3458.93
      18697.2      3454.05
      18709.0      3449.17
      18720.8      3444.83
      18732.6      3439.71
      18744.4      3434.80
      18756.2      3430.12
      18768.0      3425.86
      18779.8      3420.57
      18791.6      3415.85
      18803.4      3411.53
      18815.3      3407.71
      18827.1      3404.18
      18838.9      3400.44
      18850.7      3396.96
      18862.5      3393.21
      18874.3      3389.37
      18886.1      3386.15
      18897.9      3382.23
      18909.7      3378.16
      18921.5      3375.14
      18933.4      3371.18
      18945.2      3367.22
      18957.0      3364.05
      18968.8      3360.29
      18980.6      3356.41
      18992.4      3352.94
      19004.2      3349.44
      19016.0      3346.63
      19027.8      3344.09
      19039.7      3341.43
      19051.5      3338.39
      19063.3      3335.79
      19075.1      3332.54
      19086.9      3330.16
      19098.7      3327.54
      19110.5      3324.72
      19122.3      3321.92
      19134.1      3319.05
      19145.9      3316.59
      19157.8      3313.60
      19169.6      3310.66
      19181.4      3307.88
      19193.2      3305.53
      19205.0      3302.88
      19216.8      3300.71
      19228.6      3298.70
      19240.4      3296.79
      19252.2      3294.75
      19264.0      3292.33
      19275.9      3290.75
      19287.7      3288.19
      19299.5      3286.40
      19311.3      3284.24
      19323.1      3282.44
      19334.9      3280.26
      19346.7      3278.04
      19358.5      3275.83
      19370.3      3274.24
      19382.1      3271.95
      19394.0      3269.70
      19405.8      3268.16
      19417.6      3266.52
      19429.4      3265.24
      19441.2      3263.35
      19453.0      3261.94
      19464.8      3260.56
      19476.6      3259.10
      19488.4      3257.51
      19500.2      3255.70
      19512.1      3254.12
      19523.9      3252.81
      19535.7      3251.46
      19547.5      3249.92
      19559.3      3248.03
      19571.1      3246.70
      19582.9      3245.13
      19594.7      3243.83
      19606.5      3242.27
      19618.4      3240.91
      19630.2      3239.52
      19642.0      3238.76
      19653.8      3237.61
      19665.6      3235.91
      19677.4      3235.04
      19689.2      3233.94
      19701.0      3232.11
      19712.8      3231.52
      19724.6      3229.72
      19736.5      3229.15
      19748.3      3227.54
      19760.1      3226.45
      19771.9      3224.88
      19783.7      3224.30
      19795.5      3222.45
      19807.3      3221.59
      19819.1      3220.28
      19830.9      3219.78
      19842.7      3218.09
      19854.6      3217.22
      19866.4      3215.98
      19878.2      3215.31
      19890.0      3213.66
      19901.8      3213.03
      19913.6      3211.65
      19925.4      3210.77
      19937.2      3209.67
      19949.0      3208.63
      19960.8      3207.30
      19972.7      3206.54
      19984.5      3205.05
      19996.3      3204.38
      20008.1      3203.08
      20019.9      3202.28
      20031.7      3201.07
      20043.5      3199.94
      20055.3      3199.43
      20067.1      3197.86
      20079.0      3197.30
      20090.8      3196.06
      20102.6      3194.93
      20114.4      3194.18
      20126.2      3193.23
      20138.0      3191.92
      20149.8      3191.33
      20161.6      3190.03
      20173.4      3189.37
      20185.2      3187.77
      20197.1      3187.03
      20208.9      3186.49
      20220.7      3185.25
      20232.5      3184.44
      20244.3      3183.00
      20256.1      3182.57
      20267.9      3181.94
      20279.7      3180.49
      20291.5      3179.56
      20303.3      3179.25
      20315.2      3177.42
      20327.0      3177.40
      20338.8      3175.97
      20350.6      3175.15
      20362.4      3174.18
      20374.2      3173.24
      20386.0      3172.60
      20397.8      3171.22
      20409.6      3170.52
      20421.5      3169.98
      20433.3      3169.22
      20445.1      3167.91
      20456.9      3167.59
      20468.7      3166.32
      20480.5      3165.77
      20492.3      3164.87
      20504.1      3163.92
      20515.9      3163.44
      20527.7      3162.36
      20539.6      3161.66
      20551.4      3160.52
      20563.2      3160.05
      20575.0      3159.08
      20586.8      3158.14
      20598.6      3157.63
      20610.4      3156.50
      20622.2      3156.31
      20634.0      3155.02
      20645.8      3154.65
      20657.7      3154.01
      20669.5      3152.72
      20681.3      3152.33
      20693.1      3151.63
      20704.9      3150.91
      20716.7      3150.29
      20728.5      3149.19
      20740.3      3149.08
      20752.1      3147.90
      20763.9      3147.20
      20775.8      3146.40
      20787.6      3145.76
      20799.4      3144.96
      20811.2      3144.43
      20823.0      3143.99
      20834.8      3142.83
      20846.6      3142.20
      20858.4      3141.92
      20870.2      3140.83
      20882.0      3140.76
      20893.9      3139.73
      20905.7      3139.20
      20917.5      3138.35
      20929.3      3137.71
      20941.1      3137.04
      20952.9      3136.86
      20964.7      3135.67
      20976.5      3135.18
      20988.3      3134.53
      21000.2      3133.88
      21012.0      3133.11
      21023.8      3132.86
      21035.6      3132.23
      21047.4      3131.49
      21059.2      3131.25
      21071.0      3130.49
      21082.8      3129.65
      21094.6      3129.39
      21106.4      3128.78
      21118.3      3128.05
      21130.1      3127.91
      21141.9      3126.76
      21153.7      3126.70
      21165.5      3125.75
      21177.3      3125.15
      21189.1      3124.91
      21200.9      3124.19
      21212.7      3123.59
      21224.5      3123.41
      21236.4      3122.91
      21248.2      3122.38
      21260.0      3122.09
      21271.8      3121.19
      21283.6      3121.28
      21295.4      3120.69
      21307.2      3119.74
      21319.0      3119.87
      21330.8      3119.31
      21342.6      3118.60
      21354.5      3118.28
      21366.3      3118.00
      21378.1      3117.23
      21389.9      3116.78
      21401.7      3116.75
      21413.5      3116.13
      21425.3      3115.98
      21437.1      3115.37
      21448.9      3115.18
      21460.8      3114.58
      21472.6      3114.50
      21484.4      3114.03
      21496.2      3114.14
      21508.0      3113.24
      21519.8      3113.12
      21531.6      3112.76
      21543.4      3112.27
      21555.2      3112.47
      21567.0      3111.65
      21578.9      3111.08
      21590.7      3111.09
      21602.5      3110.96
      21614.3      3110.37
      21626.1      3110.30
      21637.9      3109.79
      21649.7      3109.86
      21661.5      3108.89
      21673.3      3109.31
      21685.1      3108.62
      21697.0      3108.71
      21708.8      3108.25
      21720.6      3107.97
      21732.4      3107.78
      21744.2      3107.35
      21756.0      3107.34
      21767.8      3106.60
      21779.6      3106.83
      21791.4      3106.32
      21803.2      3105.98
      21815.1      3105.82
      21826.9      3105.30
      21838.7      3105.37
      21850.5      3105.21
      21862.3      3104.61
      21874.1      3104.55
      21885.9      3104.02
      21897.7      3104.00
      21909.5      3103.81
      21921.3      3103.59
      21933.2      3103.13
      21945.0      3103.18
      21956.8      3102.68
      21968.6      3102.40
      21980.4      3102.43
      21992.2      3101.55
      22004.0      3101.66
      22015.8      3101.47
      22027.6      3101.14
      22039.5      3100.63
      22051.3      3100.62
      22063.1      3100.18
      22074.9      3099.91
      22086.7      3099.30
      22098.5      3099.27
      22110.3      3099.06
      22122.1      3098.28
      22133.9      3098.46
      22145.7      3098.22
      22157.6      3097.43
      22169.4      3097.48
      22181.2      3097.08
      22193.0      3096.51
      22204.8      3096.57
      22216.6      3096.05
      22228.4      3095.35
      22240.2      3095.28
      22252.0      3094.66
      22263.8      3094.22
      22275.7      3093.73
      22287.5      3093.21
      22299.3      3092.93
      22311.1      3092.56
      22322.9      3091.93
      22334.7      3091.78
      22346.5      3090.92
      22358.3      3090.78
      22370.1      3090.42
      22382.0      3089.89
      22393.8      3089.68
      22405.6      3088.67
      22417.4      3088.10
      22429.2      3087.59
      22441.0      3087.15
      22452.8      3086.47
      22464.6      3085.47
      22476.4      3085.01
      22488.2      3084.54
      22500.0      3083.61
      22511.9      3082.82
      22523.7      3082.51
      22535.5      3081.86
      22547.3      3081.33
      22559.1      3080.21
      22570.9      3079.81
      22582.7      3079.01
      22594.5      3078.65
      22606.3      3077.54
      22618.2      3076.19
      22630.0      3075.26
      22641.8      3073.88
      22653.6      3072.40
      22665.4      3071.17
      22677.2      3070.23
      22689.0      3069.01
      22700.8      3067.38
      22712.6      3066.16
      22724.4      3065.30
      22736.3      3063.87
      22748.1      3062.54
      22759.9      3061.63
      22771.7      3059.68
      22783.5      3059.02
      22795.3      3057.71
      22807.1      3055.71
      22818.9      3052.99
      22830.7      3051.24
      22842.5      3048.35
      22854.4      3046.22
      22866.2      3043.51
      22878.0      3041.52
      22889.8      3039.13
      22901.6      3036.36
      22913.4      3034.20
      22925.2      3032.10
      22937.0      3029.51
      22948.8      3026.92
      22960.6      3024.63
      22972.5      3022.25
      22984.3      3019.86
      22996.1      3017.29
      23007.9      3013.92
      23019.7      3010.34
      23031.5      3006.32
      23043.3      3002.44
      23055.1      2998.55
      23066.9      2994.67
      23078.8      2990.79
      23090.6      2986.78
      23102.4      2983.27
      23114.2      2979.04
      23126.0      2975.02
      23137.8      2971.77
      23149.6      2967.40
      23161.4      2963.45
      23173.2      2959.74
      23185.0      2956.00
      23196.9      2951.77
      23208.7      2947.41
      23220.5      2942.00
      23232.3      2937.46
      23244.1      2932.06
      23255.9      2927.34
      23267.7      2922.25
      23279.5      2917.07
      23291.3      2912.21
      23303.1      2906.88
      23315.0      2902.19
      23326.8      2896.96
      23338.6      2892.01
      23350.4      2887.25
      23362.2      2882.16
      23374.0      2876.68
      23385.8      2872.18
      23397.6      2866.92
      23409.4      2861.64
      23421.3      2855.83
      23433.1      2850.01
      23444.9      2844.75
      23456.7      2838.82
      23468.5      2833.51
      23480.3      2827.55
      23492.1      2821.81
      23503.9      2816.51
      23515.7      2810.92
      23527.5      2805.42
      23539.4      2799.20
      23551.2      2794.31
      23563.0      2788.31
      23574.8      2782.69
      23586.6      2777.06
      23598.4      2771.18
      23610.2      2765.77
      23622.0      2759.73
      23633.8      2753.70
      23645.6      2747.86
      23657.5      2742.29
      23669.3      2736.10
      23681.1      2730.16
      23692.9      2724.75
      23704.7      2718.38
      23716.5      2712.89
      23728.3      2706.65
      23740.1      2700.85
      23751.9      2694.97
      23763.7      2689.14
      23775.6      2683.26
      23787.4      2677.47
      23799.2      2671.58
      23811.0      2665.02
      23822.8      2659.32
      23834.6      2652.97
      23846.4      2647.07
      23858.2      2640.64
      23870.0      2634.35
      23881.8      2628.39
      23893.7      2622.51
      23905.5      2615.83
      23917.3      2610.02
      23929.1      2603.39
      23940.9      2597.82
      23952.7      2591.22
      23964.5      2585.10
      23976.3      2579.01
      23988.1      2572.88
      24000.0      2566.80
      24011.8      2560.18
      24023.6      2553.63
      24035.4      2547.34
      24047.2      2541.20
      24059.0      2534.43
      24070.8      2527.82
      24082.6      2521.63
      24094.4      2515.13
      24106.2      2508.50
      24118.1      2501.97
      24129.9      2495.73
      24141.7      2489.54
      24153.5      2482.67
      24165.3      2476.48
      24177.1      2469.91
      24188.9      2463.62
      24200.7      2456.86
      24212.5      2450.51
      24224.3      2443.88
      24236.2      2437.56
      24248.0      2431.19
      24259.8      2424.49
      24271.6      2418.13
      24283.4      2411.18
      24295.2      2405.29
      24307.0      2398.36
      24318.8      2391.99
      24330.6      2385.47
      24342.4      2379.05
      24354.3      2372.40
      24366.1      2366.20
      24377.9      2359.22
      24389.7      2353.32
      24401.5      2346.47
      24413.3      2340.59
      24425.1      2334.25
      24436.9      2328.24
      24448.7      2322.24
      24460.5      2316.30
      24472.4      2310.03
      24484.2      2303.69
      24496.0      2298.24
      24507.8      2291.50
      24519.6      2285.86
      24531.4      2279.66
      24543.2      2273.55
      24555.0      2267.41
      24566.8      2261.47
      24578.7      2255.20
      24590.5      2249.21
      24602.3      2243.24
      24614.1      2238.15
      24625.9      2233.23
      24637.7      2227.58
      24649.5      2222.73
      24661.3      2217.28
      24673.1      2212.18
      24684.9      2207.27
      24696.8      2201.93
      24708.6      2196.62
      24720.4      2191.58
      24732.2      2186.54
      24744.0      2181.06
      24755.8      2176.42
      24767.6      2170.78
      24779.4      2165.73
      24791.2      2160.43
      24803.0      2155.57
      24814.9      2151.76
      24826.7      2147.42
      24838.5      2143.15
      24850.3      2139.12
      24862.1      2135.12
      24873.9      2130.59
      24885.7      2126.87
      24897.5      2122.64
      24909.3      2118.48
      24921.1      2114.43
      24933.0      2110.20
      24944.8      2105.87
      24956.6      2102.09
      24968.4      2097.84
      24980.2      2093.62
      24992.0      2089.34
      25003.8      2085.99
      25015.6      2082.37
      25027.4      2079.10
      25039.3      2075.83
      25051.1      2072.33
      25062.9      2069.53
      25074.7      2065.95
      25086.5      2062.74
      25098.3      2059.49
      25110.1      2056.18
      25121.9      2052.88
      25133.7      2049.73
      25145.5      2046.15
      25157.4      2043.21
      25169.2      2039.63
      25181.0      2036.75
      25192.8      2033.00
      25204.6      2030.35
      25216.4      2027.58
      25228.2      2025.06
      25240.0      2022.20
      25251.8      2019.67
      25263.6      2017.05
      25275.5      2014.57
      25287.3      2011.71
      25299.1      2009.09
      25310.9      2006.46
      25322.7      2003.85
      25334.5      2001.28
      25346.3      1998.53
      25358.1      1996.11
      25369.9      1993.30
      25381.8      1990.70
      25393.6      1987.97
      25405.4      1985.67
      25417.2      1983.54
      25429.0      1981.32
      25440.8      1979.06
      25452.6      1976.61
      25464.4      1974.80
      25476.2      1972.45
      25488.0      1970.15
      25499.9      1968.26
      25511.7      1965.60
      25523.5      1963.77
      25535.3      1961.44
      25547.1      1959.39
      25558.9      1956.92
      25570.7      1954.99
      25582.5      1952.53
      25594.3      1950.79
