# spectrum  Type     U-V    B-V    V-R    V-I    V-J    V-K
# ---------------------------------------------------------
# bpgs_65  K7V      2.56   1.28   0.91   1.69   2.61   3.49
#
# lambda (Angstroms)  flux (phot/lambda)
#----------------------------------------------------------
PHOTLAM
      1985.67    0.0622153
      1997.48     0.187099
      2009.29     0.338646
      2021.10     0.273869
      2032.91     0.271881
      2044.72     0.352786
      2056.53     0.446298
      2068.34     0.620784
      2080.15     0.752871
      2091.96     0.814967
      2103.77     0.530199
      2115.58     0.264941
      2127.39     0.699212
      2139.20     0.894529
      2151.01     0.274908
      2162.82     0.210532
      2174.63     0.285318
      2186.44     0.138171
      2198.25     0.245590
      2210.06     0.363140
      2221.87     0.122198
      2233.68    0.0295622
      2245.49     0.323783
      2257.30     0.790014
      2269.11     0.787794
      2280.92     0.800087
      2292.73     0.329344
      2304.55     0.199286
      2316.36     0.362509
      2328.17      1.10794
      2339.98      1.21351
      2351.79     0.534708
      2363.60     0.881883
      2375.41      1.30433
      2387.22      1.20720
      2399.03     0.883736
      2410.84     0.307308
      2422.65     0.915232
      2434.46     0.955469
      2446.27     0.854656
      2458.08      1.34041
      2469.89      1.47425
      2481.70      1.47471
      2493.51      1.14470
      2505.32      1.25772
      2517.13      1.25975
      2528.94      1.29209
      2540.75      1.97711
      2552.56      2.01347
      2564.37      2.12827
      2576.18      1.74559
      2587.99      1.33067
      2599.80      1.60514
      2611.61      1.70999
      2623.42      2.77045
      2635.23      3.55693
      2647.04      4.89503
      2658.85      4.70148
      2670.66      5.03054
      2682.47      4.91139
      2694.28      5.35716
      2706.09      4.59160
      2717.90      4.60996
      2729.71      4.14503
      2741.52      4.90354
      2753.33      5.70484
      2765.14      6.97656
      2776.95      7.67672
      2788.76      11.3738
      2800.58      29.6840
      2812.39      13.0858
      2824.20      7.02575
      2836.01      7.69675
      2847.82      9.52207
      2859.63      9.84212
      2871.44      10.5688
      2883.25      10.3660
      2895.06      10.3665
      2906.87      11.2275
      2918.68      14.4392
      2930.49      15.4358
      2942.30      14.2032
      2954.11      11.6517
      2965.92      11.3693
      2977.73      11.1059
      2989.54      14.9852
      3001.35      14.9369
      3013.16      14.2501
      3024.97      13.6065
      3036.78      19.8004
      3048.59      17.8495
      3060.40      14.0188
      3072.21      15.3730
      3084.02      19.6458
      3095.83      20.5473
      3107.64      27.5314
      3119.45      27.1744
      3131.26      20.9551
      3143.07      17.5110
      3154.88      28.1201
      3166.69      19.8863
      3178.50      23.3044
      3190.31      29.7088
      3202.12      34.7757
      3213.93      33.3955
      3225.74      35.1887
      3237.55      40.5423
      3249.36      41.0438
      3261.17      39.7666
      3272.99      40.6568
      3284.80      46.5348
      3296.61      46.2785
      3308.42      41.7170
      3320.23      51.1830
      3332.04      52.4684
      3343.85      57.0621
      3355.66      50.1560
      3367.47      49.5473
      3379.28      53.9982
      3391.09      63.7048
      3402.90      64.9509
      3414.71      63.5684
      3426.52      62.2127
      3438.33      58.2480
      3450.14      53.5530
      3461.95      59.6847
      3473.76      61.2472
      3485.57      61.4086
      3497.38      67.9741
      3509.19      71.6977
      3521.00      69.6154
      3532.81      82.6016
      3544.62      86.8869
      3556.43      72.2102
      3568.24      58.0415
      3580.05      53.9866
      3591.86      57.7369
      3603.67      58.5878
      3615.48      65.2349
      3627.29      70.0016
      3639.10      72.1747
      3650.91      85.7716
      3662.72      96.0263
      3674.53      82.2744
      3686.34      82.0139
      3698.15      82.6141
      3709.96      75.6715
      3721.77      68.1975
      3733.58      60.1268
      3745.39      61.4297
      3757.20      68.1706
      3769.01      87.9381
      3780.82      97.1132
      3792.64      91.5404
      3804.45      89.8111
      3816.26      77.3224
      3828.07      69.4737
      3839.88      82.6863
      3851.69      86.7629
      3863.50      84.1452
      3875.31      76.7730
      3887.12      81.3878
      3898.93      96.5933
      3910.74      98.6108
      3922.55      90.2443
      3934.36      92.5459
      3946.17      96.2347
      3957.98      101.944
      3969.79      125.057
      3981.60      151.657
      3993.41      174.805
      4005.22      188.498
      4017.03      200.888
      4028.84      197.522
      4040.65      193.933
      4052.46      215.239
      4064.27      217.059
      4076.08      230.704
      4087.89      251.779
      4099.70      239.013
      4111.51      242.121
      4123.32      254.575
      4135.13      252.563
      4146.94      254.493
      4158.75      261.397
      4170.56      257.104
      4182.37      255.709
      4194.18      256.030
      4205.99      250.583
      4217.80      193.362
      4229.61      166.756
      4241.42      215.831
      4253.23      231.852
      4265.04      248.158
      4276.85      239.350
      4288.66      244.053
      4300.48      254.136
      4312.29      303.177
      4324.10      336.394
      4335.91      356.600
      4347.72      364.738
      4359.53      374.015
      4371.34      362.222
      4383.15      351.052
      4394.96      373.147
      4406.77      384.227
      4418.58      400.110
      4430.39      406.523
      4442.20      432.581
      4454.01      428.084
      4465.82      494.959
      4477.63      543.238
      4489.44      560.613
      4501.25      577.954
      4513.06      585.239
      4524.87      530.001
      4536.68      529.310
      4548.49      607.139
      4560.30      661.831
      4572.11      668.949
      4583.92      670.429
      4595.73      681.476
      4607.54      713.727
      4619.35      718.319
      4631.16      717.127
      4642.97      692.214
      4654.78      690.648
      4666.59      691.092
      4678.40      695.962
      4690.21      705.240
      4702.02      690.276
      4713.83      702.387
      4725.64      699.145
      4737.45      684.194
      4749.26      664.443
      4761.07      598.609
      4772.89      559.308
      4784.70      578.248
      4796.51      633.540
      4808.32      676.841
      4820.13      665.461
      4831.94      650.287
      4843.75      676.515
      4855.56      690.577
      4867.37      672.193
      4879.18      656.426
      4890.99      676.019
      4902.80      705.382
      4914.61      707.479
      4926.42      731.771
      4938.23      744.693
      4950.04      722.948
      4961.85      687.538
      4973.66      685.204
      4985.47      653.785
      4997.28      638.509
      5009.09      616.572
      5020.90      630.704
      5032.71      632.808
      5044.52      627.962
      5056.33      620.630
      5068.14      596.995
      5079.95      583.183
      5091.76      582.524
      5103.57      570.567
      5115.38      561.320
      5127.19      561.602
      5139.00      591.106
      5150.81      581.925
      5162.62      552.736
      5174.43      499.804
      5186.24      543.428
      5198.05      576.231
      5209.86      620.085
      5221.67      740.851
      5233.48      794.283
      5245.29      823.753
      5257.11      759.319
      5268.92      725.621
      5280.73      820.720
      5292.54      858.646
      5304.35      892.106
      5316.16      891.764
      5327.97      843.569
      5339.78      854.145
      5351.59      912.092
      5363.40      955.190
      5375.21      965.282
      5387.02      971.134
      5398.83      926.662
      5410.64      950.711
      5422.45      1018.85
      5434.26      995.828
      5446.07      994.967
      5457.88      1010.55
      5469.69      1022.41
      5481.50      1039.97
      5493.31      1069.49
      5505.12      1039.55
      5516.93      1040.71
      5528.74      1100.38
      5540.55      1126.58
      5552.36      1152.63
      5564.17      1128.87
      5575.98      1101.86
      5587.79      1066.08
      5599.60      1033.74
      5611.41      1101.20
      5623.22      1122.58
      5635.03      1152.55
      5646.84      1195.43
      5658.65      1199.28
      5670.46      1194.56
      5682.27      1232.37
      5694.08      1229.48
      5705.89      1208.65
      5717.70      1239.81
      5729.51      1287.35
      5741.32      1340.52
      5753.13      1358.22
      5764.94      1368.91
      5776.75      1375.96
      5788.57      1381.78
      5800.38      1391.68
      5812.19      1425.38
      5824.00      1440.98
      5835.81      1417.67
      5847.62      1388.70
      5859.43      1342.71
      5871.24      1196.74
      5883.05      1065.40
      5894.86      1017.81
      5906.67      1078.27
      5918.48      1216.07
      5930.29      1302.35
      5942.10      1363.31
      5953.91      1389.55
      5965.72      1412.02
      5977.53      1432.45
      5989.34      1440.75
      6001.15      1446.26
      6012.96      1459.26
      6024.77      1484.58
      6036.58      1525.76
      6048.39      1551.19
      6060.20      1563.83
      6072.01      1547.75
      6083.82      1525.56
      6095.63      1500.15
      6107.44      1470.85
      6119.25      1446.71
      6131.06      1480.79
      6142.87      1495.45
      6154.68      1431.26
      6166.49      1395.22
      6178.30      1389.02
      6190.11      1416.11
      6201.92      1435.90
      6213.73      1401.23
      6225.54      1369.91
      6237.35      1349.06
      6249.16      1357.42
      6260.97      1379.27
      6272.79      1412.08
      6284.60      1445.87
      6296.41      1479.03
      6308.22      1508.25
      6320.03      1534.68
      6331.84      1555.84
      6343.65      1569.77
      6355.46      1571.19
      6367.27      1554.15
      6379.08      1528.58
      6390.89      1531.33
      6402.70      1550.94
      6414.51      1597.38
      6426.32      1626.28
      6438.13      1638.34
      6449.94      1649.91
      6461.75      1659.21
      6473.56      1660.87
      6485.37      1669.13
      6497.18      1687.39
      6508.99      1729.18
      6520.80      1775.32
      6532.61      1798.46
      6544.42      1804.03
      6556.23      1786.81
      6568.04      1779.64
      6579.85      1781.72
      6591.66      1807.19
      6603.47      1826.22
      6615.28      1823.27
      6627.09      1821.58
      6638.90      1819.45
      6650.71      1801.14
      6662.52      1778.21
      6674.33      1753.20
      6686.14      1733.57
      6697.95      1719.27
      6709.76      1707.88
      6721.57      1697.87
      6733.38      1689.26
      6745.19      1678.25
      6757.00      1663.93
      6768.82      1647.92
      6780.63      1631.23
      6792.44      1614.64
      6804.25      1608.49
      6816.06      1619.69
      6827.87      1636.81
      6839.68      1650.04
      6851.49      1618.29
      6863.30      1579.19
      6875.11      1543.51
      6886.92      1564.61
      6898.73      1625.85
      6910.54      1674.53
      6922.35      1719.27
      6934.16      1762.13
      6945.97      1803.30
      6957.78      1840.11
      6969.59      1836.63
      6981.40      1827.77
      6993.21      1849.58
      7005.02      1878.91
      7016.83      1914.12
      7028.64      1956.78
      7040.45      1994.68
      7052.26      1991.34
      7064.07      1974.52
      7075.88      1945.24
      7087.69      1925.26
      7099.50      1908.84
      7111.31      1879.35
      7123.12      1849.39
      7134.93      1824.99
      7146.74      1843.18
      7158.55      1892.96
      7170.36      1930.34
      7182.17      1944.86
      7193.98      1901.27
      7205.79      1892.08
      7217.60      1923.29
      7229.41      1959.11
      7241.22      1990.59
      7253.03      1998.73
      7264.84      2013.94
      7276.65      2042.79
      7288.46      2076.87
      7300.28      2106.21
      7312.09      2098.71
      7323.90      2091.68
      7335.71      2096.20
      7347.52      2105.15
      7359.33      2117.59
      7371.14      2135.96
      7382.95      2151.22
      7394.76      2155.47
      7406.57      2161.71
      7418.38      2170.09
      7430.19      2179.36
      7442.00      2189.39
      7453.81      2200.49
      7465.62      2204.27
      7477.43      2200.36
      7489.24      2202.20
      7501.05      2207.74
      7512.86      2219.07
      7524.67      2233.78
      7536.48      2252.18
      7548.29      2265.27
      7560.10      2290.25
      7571.91      2394.78
      7583.72      2418.56
      7595.53      2262.43
      7607.34      2153.26
      7619.15      2089.23
      7630.96      2111.35
      7642.77      2141.15
      7654.58      2140.61
      7666.39      2096.55
      7678.20      2026.34
      7690.01      2067.02
      7701.82      2127.64
      7713.63      2143.77
      7725.44      2161.21
      7737.25      2184.43
      7749.06      2203.78
      7760.88      2221.43
      7772.69      2239.19
      7784.49      2247.35
      7796.31      2241.16
      7808.12      2235.03
      7819.93      2233.99
      7831.74      2261.16
      7843.55      2287.22
      7855.36      2300.30
      7867.17      2307.21
      7878.98      2308.36
      7890.79      2294.54
      7902.60      2279.01
      7914.41      2268.59
      7926.22      2260.22
      7938.03      2254.02
      7949.84      2254.39
      7961.65      2263.17
      7973.46      2292.78
      7985.27      2314.78
      7997.08      2324.75
      8008.89      2334.77
      8020.70      2342.34
      8032.51      2339.42
      8044.32      2344.55
      8056.13      2364.17
      8067.94      2362.09
      8079.75      2349.80
      8091.56      2350.31
      8103.37      2365.18
      8115.18      2405.74
      8126.99      2435.39
      8138.80      2452.14
      8150.61      2431.60
      8162.42      2392.68
      8174.23      2329.19
      8186.04      2250.96
      8197.85      2171.19
      8209.66      2233.12
      8221.47      2316.59
      8233.28      2304.52
      8245.10      2319.58
      8256.90      2378.75
      8268.71      2384.54
      8280.52      2365.58
      8292.34      2342.24
      8304.15      2312.05
      8315.96      2271.40
      8327.76      2253.61
      8339.58      2254.80
      8351.39      2296.38
      8363.20      2321.82
      8375.01      2293.57
      8386.82      2278.86
      8398.63      2277.21
      8410.44      2286.76
      8422.25      2302.73
      8434.06      2327.98
      8445.87      2328.39
      8457.68      2304.52
      8469.49      2299.11
      8481.30      2299.44
      8493.11      2296.95
      8504.92      2288.67
      8516.73      2271.26
      8528.54      2229.13
      8540.35      2182.45
      8552.16      2173.37
      8563.97      2214.52
      8575.78      2333.69
      8587.59      2388.42
      8599.40      2397.04
      8611.21      2365.14
      8623.02      2342.09
      8634.83      2357.64
      8646.64      2333.14
      8658.45      2272.14
      8670.26      2182.46
      8682.07      2129.31
      8693.88      2212.14
      8705.69      2284.90
      8717.50      2334.06
      8729.31      2360.70
      8741.12      2368.71
      8752.93      2336.86
      8764.74      2307.65
      8776.55      2290.21
      8788.37      2310.69
      8800.18      2337.60
      8811.99      2302.96
      8823.80      2292.20
      8835.61      2344.89
      8847.42      2370.91
      8859.23      2374.51
      8871.04      2351.96
      8882.85      2328.34
      8894.66      2317.38
      8906.47      2312.77
      8918.28      2312.52
      8930.09      2311.11
      8941.90      2318.14
      8953.71      2355.09
      8965.52      2375.27
      8977.33      2371.74
      8989.14      2326.66
      9000.95      2282.75
      9012.76      2310.72
      9024.57      2365.78
      9036.38      2445.88
      9048.19      2459.08
      9060.00      2429.30
      9071.81      2351.68
      9083.62      2313.71
      9095.43      2369.34
      9107.24      2378.17
      9119.05      2348.30
      9130.86      2280.07
      9142.67      2231.27
      9154.48      2254.03
      9166.29      2276.41
      9178.10      2296.08
      9189.91      2330.33
      9201.72      2366.74
      9213.53      2393.01
      9225.34      2384.93
      9237.15      2337.18
      9248.96      2287.63
      9260.78      2267.77
      9272.58      2381.16
      9284.40      2449.30
      9296.21      2418.27
      9308.02      2394.26
      9319.83      2390.05
      9331.64      2473.98
      9343.45      2476.44
      9355.26      2280.87
      9367.07      2227.31
      9378.88      2294.45
      9390.69      2482.51
      9402.50      2600.36
      9414.31      2449.20
      9426.12      2294.37
      9437.93      2167.23
      9449.74      2213.35
      9461.55      2300.10
      9473.36      2328.39
      9485.17      2321.16
      9496.98      2279.09
      9508.79      2279.25
      9520.60      2309.13
      9532.41      2392.77
      9544.22      2436.18
      9556.03      2400.95
      9567.84      2352.17
      9579.65      2303.25
      9591.46      2295.09
      9603.27      2307.60
      9615.08      2347.38
      9626.89      2322.62
      9638.70      2254.55
      9650.51      2237.03
      9662.32      2238.64
      9674.13      2256.31
      9685.94      2265.88
      9697.75      2265.48
      9709.56      2258.95
      9721.37      2257.43
      9733.18      2281.44
      9744.99      2279.80
      9756.80      2242.83
      9768.62      2246.66
      9780.43      2265.14
      9792.24      2263.17
      9804.04      2271.40
      9815.86      2303.32
      9827.67      2303.30
      9839.48      2284.56
      9851.29      2271.04
      9863.10      2264.11
      9874.91      2270.21
      9886.72      2267.82
      9898.53      2259.14
      9910.34      2258.03
      9922.15      2260.45
      9933.96      2267.15
      9945.77      2273.62
      9957.58      2278.48
      9969.39      2274.50
      9981.20      2268.72
      9993.01      2269.48
      10004.8      2282.86
      10016.6      2311.16
      10028.4      2302.96
      10040.3      2284.03
      10052.1      2302.60
      10063.9      2299.02
      10075.7      2246.04
      10087.5      2233.37
      10099.3      2248.40
      10111.1      2273.71
      10122.9      2291.49
      10134.7      2284.97
      10146.5      2263.11
      10158.4      2234.78
      10170.2      2259.23
      10182.0      2278.95
      10193.8      2236.80
      10205.6      2200.97
      10217.4      2178.78
      10229.2      2178.90
      10241.0      2192.06
      10252.8      2224.11
      10264.6      2255.85
      10276.5      2282.83
      10288.3      2276.38
      10300.1      2253.53
      10311.9      2232.27
      10323.7      2213.79
      10335.5      2200.41
      10347.3      2199.85
      10359.1      2210.75
      10370.9      2245.35
      10382.7      2268.08
      10394.6      2247.83
      10406.4      2249.36
      10418.2      2271.30
      10430.0      2278.99
      10441.8      2276.67
      10453.6      2256.68
      10465.4      2237.31
      10477.2      2222.80
      10489.0      2241.08
      10500.8      2259.45
      10512.7      2219.44
      10524.5      2207.92
      10536.3      2250.91
      10548.1      2276.92
      10559.9      2286.32
      10571.7      2255.96
      10583.5      2233.95
      10595.3      2242.56
      10607.1      2246.46
      10619.0      2245.88
      10630.8      2245.15
      10642.6      2244.64
      10654.4      2244.10
      10666.2      2243.48
      10678.0      2242.93
      10689.8      2242.31
      10701.6      2241.68
      10713.4      2241.18
      10725.2      2240.51
      10737.1      2240.06
      10748.9      2239.42
      10760.7      2238.83
      10772.5      2238.16
      10784.3      2237.68
      10796.1      2237.04
      10807.9      2236.34
      10819.7      2235.75
      10831.5      2235.05
      10843.3      2234.30
      10855.2      2233.67
      10867.0      2232.81
      10878.8      2232.33
      10890.6      2231.53
      10902.4      2230.78
      10914.2      2230.16
      10926.0      2229.38
      10937.8      2228.73
      10949.6      2228.03
      10961.4      2227.28
      10973.3      2226.72
      10985.1      2225.86
      10996.9      2225.35
      11008.7      2224.45
      11020.5      2223.76
      11032.3      2223.13
      11044.1      2222.33
      11055.9      2221.66
      11067.7      2220.89
      11079.6      2220.10
      11091.4      2219.48
      11103.2      2218.62
      11115.0      2217.93
      11126.8      2217.35
      11138.6      2216.52
      11150.4      2215.69
      11162.2      2215.10
      11174.0      2214.41
      11185.8      2213.55
      11197.7      2212.89
      11209.5      2212.20
      11221.3      2211.31
      11233.1      2210.56
      11244.9      2210.07
      11256.7      2209.20
      11268.5      2208.36
      11280.3      2207.73
      11292.1      2206.82
      11303.9      2206.34
      11315.8      2205.41
      11327.6      2204.75
      11339.4      2203.96
      11351.2      2203.30
      11363.0      2202.49
      11374.8      2201.77
      11386.6      2200.93
      11398.4      2200.30
      11410.2      2199.67
      11422.0      2198.86
      11433.9      2198.25
      11445.7      2197.63
      11457.5      2196.81
      11469.3      2196.31
      11481.1      2195.57
      11492.9      2194.90
      11504.7      2194.19
      11516.5      2193.47
      11528.3      2192.87
      11540.2      2192.07
      11552.0      2191.56
      11563.8      2190.81
      11575.6      2190.22
      11587.4      2189.39
      11599.2      2188.88
      11611.0      2188.20
      11622.8      2187.63
      11634.6      2187.01
      11646.4      2186.34
      11658.3      2185.80
      11670.1      2185.29
      11681.9      2184.56
      11693.7      2184.05
      11705.5      2183.37
      11717.3      2182.78
      11729.1      2182.24
      11740.9      2181.61
      11752.7      2180.94
      11764.5      2180.49
      11776.4      2179.80
      11788.2      2179.24
      11800.0      2178.65
      11811.8      2178.17
      11823.6      2177.67
      11835.4      2177.28
      11847.2      2176.80
      11859.0      2176.38
      11870.8      2175.97
      11882.6      2175.39
      11894.5      2175.10
      11906.3      2174.39
      11918.1      2174.19
      11929.9      2173.66
      11941.7      2173.21
      11953.5      2172.75
      11965.3      2172.28
      11977.1      2171.89
      11988.9      2171.39
      12000.7      2171.06
      12012.6      2170.56
      12024.4      2170.53
      12036.2      2170.20
      12048.0      2169.88
      12059.8      2169.50
      12071.6      2169.40
      12083.4      2169.13
      12095.2      2168.84
      12107.0      2168.51
      12118.9      2168.37
      12130.7      2168.15
      12142.5      2167.74
      12154.3      2167.41
      12166.1      2167.31
      12177.9      2166.91
      12189.7      2166.83
      12201.5      2166.48
      12213.3      2166.42
      12225.1      2166.44
      12237.0      2166.41
      12248.8      2166.45
      12260.6      2166.18
      12272.4      2166.34
      12284.2      2166.31
      12296.0      2166.12
      12307.8      2166.33
      12319.6      2166.07
      12331.4      2166.12
      12343.2      2166.01
      12355.1      2166.06
      12366.9      2166.04
      12378.7      2166.06
      12390.5      2166.01
      12402.3      2166.00
      12414.1      2166.59
      12425.9      2167.10
      12437.7      2167.59
      12449.5      2168.04
      12461.3      2168.59
      12473.2      2169.25
      12485.0      2169.59
      12496.8      2170.15
      12508.6      2170.64
      12520.4      2171.19
      12532.2      2171.72
      12544.0      2172.30
      12555.8      2172.80
      12567.6      2173.22
      12579.5      2173.80
      12591.3      2174.27
      12603.1      2174.54
      12614.9      2174.31
      12626.7      2174.05
      12638.5      2173.65
      12650.3      2173.32
      12662.1      2173.11
      12673.9      2172.68
      12685.7      2172.47
      12697.6      2172.05
      12709.4      2171.82
      12721.2      2171.47
      12733.0      2171.22
      12744.8      2170.88
      12756.6      2170.68
      12768.4      2170.28
      12780.2      2169.91
      12792.0      2169.64
      12803.8      2168.80
      12815.7      2167.26
      12827.5      2165.60
      12839.3      2163.96
      12851.1      2162.39
      12862.9      2160.71
      12874.7      2159.19
      12886.5      2157.39
      12898.3      2155.79
      12910.1      2154.23
      12921.9      2152.49
      12933.8      2150.94
      12945.6      2149.36
      12957.4      2147.60
      12969.2      2146.01
      12981.0      2144.35
      12992.8      2142.71
      13004.6      2140.49
      13016.4      2136.95
      13028.2      2133.71
      13040.1      2130.12
      13051.9      2126.85
      13063.7      2123.47
      13075.5      2119.95
      13087.3      2116.70
      13099.1      2113.24
      13110.9      2109.88
      13122.7      2106.44
      13134.5      2103.06
      13146.3      2099.62
      13158.2      2096.24
      13170.0      2092.79
      13181.8      2089.48
      13193.6      2086.08
      13205.4      2082.45
      13217.2      2078.67
      13229.0      2075.01
      13240.8      2071.12
      13252.6      2067.30
      13264.4      2063.58
      13276.3      2059.86
      13288.1      2055.92
      13299.9      2052.29
      13311.7      2048.51
      13323.5      2044.58
      13335.3      2040.98
      13347.1      2037.04
      13358.9      2033.36
      13370.7      2029.62
      13382.5      2025.85
      13394.4      2022.01
      13406.2      2018.92
      13418.0      2016.60
      13429.8      2014.17
      13441.6      2011.88
      13453.4      2009.50
      13465.2      2007.12
      13477.0      2004.80
      13488.8      2002.41
      13500.6      1999.91
      13512.5      1997.64
      13524.3      1995.29
      13536.1      1992.97
      13547.9      1990.43
      13559.7      1988.26
      13571.5      1985.76
      13583.3      1983.42
      13595.1      1981.04
      13606.9      1979.57
      13618.8      1978.63
      13630.6      1977.72
      13642.4      1976.81
      13654.2      1975.85
      13666.0      1975.02
      13677.8      1974.08
      13689.6      1973.09
      13701.4      1972.17
      13713.2      1971.30
      13725.0      1970.45
      13736.9      1969.44
      13748.7      1968.53
      13760.5      1967.63
      13772.3      1966.76
      13784.1      1965.73
      13795.9      1964.97
      13807.7      1964.40
      13819.5      1964.12
      13831.3      1963.91
      13843.1      1963.54
      13855.0      1963.44
      13866.8      1963.07
      13878.6      1962.80
      13890.4      1962.67
      13902.2      1962.31
      13914.0      1961.97
      13925.8      1961.78
      13937.6      1961.55
      13949.4      1961.18
      13961.2      1961.07
      13973.1      1960.71
      13984.9      1960.44
      13996.7      1960.35
      14008.5      1959.81
      14020.3      1959.56
      14032.1      1959.20
      14043.9      1958.92
      14055.7      1958.50
      14067.5      1958.12
      14079.4      1957.85
      14091.2      1957.61
      14103.0      1957.13
      14114.8      1956.86
      14126.6      1956.35
      14138.4      1956.23
      14150.2      1955.86
      14162.0      1955.41
      14173.8      1955.17
      14185.6      1954.76
      14197.5      1954.36
      14209.3      1954.06
      14221.1      1953.53
      14232.9      1953.08
      14244.7      1952.51
      14256.5      1952.16
      14268.3      1951.64
      14280.1      1951.28
      14291.9      1950.66
      14303.7      1950.25
      14315.6      1949.70
      14327.4      1949.44
      14339.2      1948.78
      14351.0      1948.31
      14362.8      1947.98
      14374.6      1947.41
      14386.4      1946.96
      14398.2      1946.49
      14410.0      1946.05
      14421.8      1945.52
      14433.7      1945.23
      14445.5      1944.67
      14457.3      1944.17
      14469.1      1943.84
      14480.9      1943.37
      14492.7      1942.79
      14504.5      1942.50
      14516.3      1941.89
      14528.1      1941.53
      14540.0      1941.13
      14551.8      1940.55
      14563.6      1940.25
      14575.4      1939.72
      14587.2      1939.27
      14599.0      1938.88
      14610.8      1938.76
      14622.6      1938.56
      14634.4      1938.56
      14646.2      1938.55
      14658.1      1938.44
      14669.9      1938.29
      14681.7      1938.43
      14693.5      1938.16
      14705.3      1938.18
      14717.1      1938.04
      14728.9      1938.02
      14740.7      1937.91
      14752.5      1937.91
      14764.3      1937.82
      14776.2      1937.66
      14788.0      1937.68
      14799.8      1937.63
      14811.6      1938.28
      14823.4      1938.79
      14835.2      1939.63
      14847.0      1940.02
      14858.8      1940.86
      14870.6      1941.40
      14882.4      1942.09
      14894.3      1942.87
      14906.1      1943.29
      14917.9      1944.06
      14929.7      1944.65
      14941.5      1945.28
      14953.3      1946.09
      14965.1      1946.56
      14976.9      1947.26
      14988.7      1947.94
      15000.5      1948.75
      15012.4      1949.72
      15024.2      1951.23
      15036.0      1952.29
      15047.8      1953.52
      15059.6      1954.97
      15071.4      1956.16
      15083.2      1957.32
      15095.0      1958.54
      15106.8      1959.92
      15118.7      1961.09
      15130.5      1962.42
      15142.3      1963.55
      15154.1      1964.96
      15165.9      1966.22
      15177.7      1967.39
      15189.5      1968.62
      15201.3      1969.99
      15213.1      1971.42
      15224.9      1973.17
      15236.8      1974.82
      15248.6      1976.29
      15260.4      1977.93
      15272.2      1979.54
      15284.0      1981.21
      15295.8      1982.74
      15307.6      1984.38
      15319.4      1985.88
      15331.2      1987.55
      15343.0      1989.12
      15354.9      1990.79
      15366.7      1992.31
      15378.5      1994.06
      15390.3      1995.49
      15402.1      1997.25
      15413.9      1998.85
      15425.7      2000.52
      15437.5      2002.17
      15449.3      2003.88
      15461.1      2005.64
      15473.0      2007.19
      15484.8      2008.93
      15496.6      2010.67
      15508.4      2012.28
      15520.2      2013.99
      15532.0      2015.63
      15543.8      2017.33
      15555.6      2019.00
      15567.4      2020.66
      15579.3      2022.39
      15591.1      2024.04
      15602.9      2025.69
      15614.7      2027.10
      15626.5      2028.72
      15638.3      2030.08
      15650.1      2031.65
      15661.9      2033.05
      15673.7      2034.58
      15685.5      2036.06
      15697.4      2037.58
      15709.2      2039.04
      15721.0      2040.46
      15732.8      2042.06
      15744.6      2043.43
      15756.4      2044.96
      15768.2      2046.37
      15780.0      2048.01
      15791.8      2049.50
      15803.6      2050.70
      15815.5      2051.80
      15827.3      2052.78
      15839.1      2053.83
      15850.9      2054.83
      15862.7      2056.05
      15874.5      2056.92
      15886.3      2057.93
      15898.1      2059.03
      15909.9      2060.05
      15921.8      2061.07
      15933.6      2062.14
      15945.4      2063.15
      15957.2      2064.22
      15969.0      2065.22
      15980.8      2066.17
      15992.6      2067.42
      16004.4      2067.96
      16016.2      2068.40
      16028.0      2068.65
      16039.8      2069.05
      16051.7      2069.19
      16063.5      2069.71
      16075.3      2069.92
      16087.1      2070.18
      16098.9      2070.59
      16110.7      2070.82
      16122.5      2071.10
      16134.3      2071.54
      16146.1      2071.86
      16158.0      2072.15
      16169.8      2072.34
      16181.6      2072.74
      16193.4      2073.08
      16205.2      2072.93
      16217.0      2072.10
      16228.8      2071.57
      16240.6      2070.89
      16252.4      2070.17
      16264.2      2069.50
      16276.1      2068.70
      16287.9      2068.11
      16299.7      2067.32
      16311.5      2066.75
      16323.3      2066.00
      16335.1      2065.35
      16346.9      2064.54
      16358.7      2063.93
      16370.5      2063.25
      16382.3      2062.42
      16394.2      2061.94
      16406.0      2060.46
      16417.8      2058.79
      16429.6      2056.79
      16441.4      2054.60
      16453.2      2053.09
      16465.0      2051.03
      16476.8      2049.23
      16488.6      2047.22
      16500.5      2045.34
      16512.3      2043.58
      16524.1      2041.63
      16535.9      2039.72
      16547.7      2037.76
      16559.5      2035.99
      16571.3      2034.13
      16583.1      2031.98
      16594.9      2030.16
      16606.7      2027.90
      16618.6      2025.10
      16630.4      2022.25
      16642.2      2019.49
      16654.0      2016.82
      16665.8      2014.09
      16677.6      2011.13
      16689.4      2008.24
      16701.2      2005.67
      16713.0      2002.93
      16724.8      1999.95
      16736.7      1997.52
      16748.5      1994.49
      16760.3      1991.65
      16772.1      1989.05
      16783.9      1986.16
      16795.7      1983.35
      16807.5      1980.39
      16819.3      1977.00
      16831.1      1974.06
      16842.9      1970.66
      16854.8      1967.55
      16866.6      1964.34
      16878.4      1960.83
      16890.2      1957.83
      16902.0      1954.67
      16913.8      1951.45
      16925.6      1948.03
      16937.4      1944.93
      16949.2      1941.80
      16961.1      1938.35
      16972.9      1935.25
      16984.7      1931.92
      16996.5      1928.74
      17008.3      1925.53
      17020.1      1921.86
      17031.9      1918.37
      17043.7      1914.82
      17055.5      1911.32
      17067.3      1907.81
      17079.2      1904.23
      17091.0      1900.66
      17102.8      1897.36
      17114.6      1893.59
      17126.4      1890.25
      17138.2      1886.59
      17150.0      1883.03
      17161.8      1879.65
      17173.6      1876.19
      17185.4      1872.61
      17197.3      1869.09
      17209.1      1865.36
      17220.9      1861.58
      17232.7      1857.90
      17244.5      1853.96
      17256.3      1850.57
      17268.1      1846.40
      17279.9      1843.01
      17291.7      1839.03
      17303.5      1835.37
      17315.4      1831.60
      17327.2      1827.72
      17339.0      1824.23
      17350.8      1820.25
      17362.6      1816.62
      17374.4      1813.01
      17386.2      1809.00
      17398.0      1805.31
      17409.8      1801.43
      17421.6      1797.50
      17433.5      1793.81
      17445.3      1789.87
      17457.1      1785.73
      17468.9      1782.00
      17480.7      1778.16
      17492.5      1774.30
      17504.3      1770.36
      17516.1      1766.31
      17527.9      1762.66
      17539.7      1758.73
      17551.6      1754.57
      17563.4      1750.89
      17575.2      1747.06
      17587.0      1743.18
      17598.8      1739.10
      17610.6      1735.35
      17622.4      1731.38
      17634.2      1727.74
      17646.0      1723.88
      17657.9      1719.96
      17669.7      1716.10
      17681.5      1712.30
      17693.3      1708.55
      17705.1      1704.63
      17716.9      1700.91
      17728.7      1696.81
      17740.5      1693.19
      17752.3      1689.24
      17764.1      1685.38
      17776.0      1681.48
      17787.8      1677.78
      17799.6      1674.03
      17811.4      1670.34
      17823.2      1666.78
      17835.0      1663.17
      17846.8      1659.48
      17858.6      1656.00
      17870.4      1652.36
      17882.2      1649.00
      17894.1      1645.07
      17905.9      1641.82
      17917.7      1638.03
      17929.5      1634.54
      17941.3      1630.94
      17953.1      1627.38
      17964.9      1623.79
      17976.7      1620.24
      17988.5      1616.63
      18000.4      1612.98
      18012.2      1610.01
      18024.0      1606.80
      18035.8      1603.62
      18047.6      1600.40
      18059.4      1597.58
      18071.2      1594.28
      18083.0      1590.93
      18094.8      1588.07
      18106.6      1584.89
      18118.5      1581.59
      18130.3      1578.47
      18142.1      1575.51
      18153.9      1572.21
      18165.7      1569.23
      18177.5      1566.03
      18189.3      1562.84
      18201.1      1559.80
      18212.9      1557.23
      18224.7      1554.29
      18236.6      1551.65
      18248.4      1549.05
      18260.2      1546.25
      18272.0      1543.50
      18283.8      1540.89
      18295.6      1538.26
      18307.4      1535.39
      18319.2      1532.70
      18331.0      1530.13
      18342.8      1527.40
      18354.7      1524.49
      18366.5      1522.11
      18378.3      1519.15
      18390.1      1516.64
      18401.9      1513.79
      18413.7      1511.69
      18425.5      1509.10
      18437.3      1506.90
      18449.1      1504.32
      18460.9      1502.19
      18472.8      1499.75
      18484.6      1497.24
      18496.4      1495.04
      18508.2      1492.77
      18520.0      1490.38
      18531.8      1487.81
      18543.6      1485.56
      18555.4      1483.38
      18567.2      1480.91
      18579.1      1478.34
      18590.9      1476.19
      18602.7      1473.80
      18614.5      1471.73
      18626.3      1469.69
      18638.1      1467.59
      18649.9      1465.54
      18661.7      1463.22
      18673.5      1461.26
      18685.3      1459.21
      18697.2      1457.07
      18709.0      1454.92
      18720.8      1453.00
      18732.6      1450.75
      18744.4      1448.59
      18756.2      1446.53
      18768.0      1444.64
      18779.8      1442.32
      18791.6      1440.24
      18803.4      1438.24
      18815.3      1436.29
      18827.1      1434.45
      18838.9      1432.52
      18850.7      1430.70
      18862.5      1428.77
      18874.3      1426.80
      18886.1      1425.09
      18897.9      1423.08
      18909.7      1421.02
      18921.5      1419.39
      18933.4      1417.37
      18945.2      1415.35
      18957.0      1413.66
      18968.8      1411.73
      18980.6      1409.74
      18992.4      1407.92
      19004.2      1406.02
      19016.0      1404.28
      19027.8      1402.66
      19039.7      1400.98
      19051.5      1399.15
      19063.3      1397.50
      19075.1      1395.57
      19086.9      1394.02
      19098.7      1392.36
      19110.5      1390.61
      19122.3      1388.88
      19134.1      1387.11
      19145.9      1385.52
      19157.8      1383.71
      19169.6      1381.92
      19181.4      1380.19
      19193.2      1378.64
      19205.0      1376.91
      19216.8      1375.30
      19228.6      1373.75
      19240.4      1372.25
      19252.2      1370.69
      19264.0      1368.97
      19275.9      1367.61
      19287.7      1365.83
      19299.5      1364.38
      19311.3      1362.77
      19323.1      1361.31
      19334.9      1359.70
      19346.7      1358.06
      19358.5      1356.43
      19370.3      1355.06
      19382.1      1353.40
      19394.0      1351.76
      19405.8      1350.36
      19417.6      1348.86
      19429.4      1347.52
      19441.2      1345.94
      19453.0      1344.54
      19464.8      1343.16
      19476.6      1341.74
      19488.4      1340.27
      19500.2      1338.71
      19512.1      1337.25
      19523.9      1335.90
      19535.7      1334.53
      19547.5      1333.08
      19559.3      1331.49
      19571.1      1330.12
      19582.9      1328.67
      19594.7      1327.32
      19606.5      1325.84
      19618.4      1324.44
      19630.2      1323.02
      19642.0      1321.86
      19653.8      1320.54
      19665.6      1319.00
      19677.4      1317.79
      19689.2      1316.49
      19701.0      1314.90
      19712.8      1313.80
      19724.6      1312.22
      19736.5      1311.14
      19748.3      1309.63
      19760.1      1308.33
      19771.9      1306.84
      19783.7      1305.76
      19795.5      1304.15
      19807.3      1302.96
      19819.1      1301.59
      19830.9      1300.55
      19842.7      1299.03
      19854.6      1297.84
      19866.4      1296.50
      19878.2      1295.39
      19890.0      1293.89
      19901.8      1292.80
      19913.6      1291.40
      19925.4      1290.21
      19937.2      1288.93
      19949.0      1287.67
      19960.8      1286.30
      19972.7      1285.15
      19984.5      1283.71
      19996.3      1282.61
      20008.1      1281.26
      20019.9      1280.12
      20031.7      1278.82
      20043.5      1277.55
      20055.3      1276.53
      20067.1      1275.08
      20079.0      1274.04
      20090.8      1272.73
      20102.6      1271.46
      20114.4      1270.34
      20126.2      1269.15
      20138.0      1267.81
      20149.8      1266.75
      20161.6      1265.42
      20173.4      1264.33
      20185.2      1262.88
      20197.1      1261.77
      20208.9      1260.75
      20220.7      1259.46
      20232.5      1258.35
      20244.3      1256.99
      20256.1      1256.02
      20267.9      1254.97
      20279.7      1253.60
      20291.5      1252.44
      20303.3      1251.52
      20315.2      1250.00
      20327.0      1249.20
      20338.8      1247.84
      20350.6      1246.72
      20362.4      1245.54
      20374.2      1244.37
      20386.0      1243.33
      20397.8      1241.99
      20409.6      1240.93
      20421.5      1239.93
      20433.3      1238.85
      20445.1      1237.56
      20456.9      1236.65
      20468.7      1235.37
      20480.5      1234.38
      20492.3      1233.24
      20504.1      1232.09
      20515.9      1231.11
      20527.7      1229.91
      20539.6      1228.85
      20551.4      1227.62
      20563.2      1226.66
      20575.0      1225.49
      20586.8      1224.34
      20598.6      1223.36
      20610.4      1222.15
      20622.2      1221.30
      20634.0      1220.03
      20645.8      1219.12
      20657.7      1218.10
      20669.5      1216.82
      20681.3      1215.90
      20693.1      1214.86
      20704.9      1213.80
      20716.7      1212.79
      20728.5      1211.59
      20740.3      1210.78
      20752.1      1209.55
      20763.9      1208.51
      20775.8      1207.43
      20787.6      1206.41
      20799.4      1205.32
      20811.2      1204.36
      20823.0      1203.42
      20834.8      1202.22
      20846.6      1201.21
      20858.4      1200.34
      20870.2      1199.16
      20882.0      1198.37
      20893.9      1197.21
      20905.7      1196.25
      20917.5      1195.16
      20929.3      1194.15
      20941.1      1193.13
      20952.9      1192.30
      20964.7      1191.08
      20976.5      1190.13
      20988.3      1189.11
      21000.2      1188.10
      21012.0      1187.05
      21023.8      1186.20
      21035.6      1185.21
      21047.4      1184.17
      21059.2      1183.33
      21071.0      1182.28
      21082.8      1181.21
      21094.6      1180.35
      21106.4      1179.36
      21118.3      1178.33
      21130.1      1177.52
      21141.9      1176.33
      21153.7      1175.55
      21165.5      1174.44
      21177.3      1173.45
      21189.1      1172.60
      21200.9      1171.58
      21212.7      1170.58
      21224.5      1169.74
      21236.4      1168.78
      21248.2      1167.81
      21260.0      1166.94
      21271.8      1165.83
      21283.6      1165.09
      21295.4      1164.10
      21307.2      1162.97
      21319.0      1162.25
      21330.8      1161.27
      21342.6      1160.23
      21354.5      1159.34
      21366.3      1158.46
      21378.1      1157.41
      21389.9      1156.47
      21401.7      1155.68
      21413.5      1154.67
      21425.3      1153.83
      21437.1      1152.82
      21448.9      1151.96
      21460.8      1150.96
      21472.6      1150.14
      21484.4      1149.19
      21496.2      1148.44
      21508.0      1147.32
      21519.8      1146.49
      21531.6      1145.58
      21543.4      1144.61
      21555.2      1143.90
      21567.0      1142.82
      21578.9      1141.82
      21590.7      1141.04
      21602.5      1140.20
      21614.3      1139.20
      21626.1      1138.37
      21637.9      1137.40
      21649.7      1136.63
      21661.5      1135.48
      21673.3      1134.84
      21685.1      1133.79
      21697.0      1133.03
      21708.8      1132.07
      21720.6      1131.18
      21732.4      1130.32
      21744.2      1129.36
      21756.0      1128.57
      21767.8      1127.50
      21779.6      1126.79
      21791.4      1125.81
      21803.2      1124.89
      21815.1      1124.02
      21826.9      1123.03
      21838.7      1122.24
      21850.5      1121.37
      21862.3      1120.34
      21874.1      1119.51
      21885.9      1118.51
      21897.7      1117.69
      21909.5      1116.81
      21921.3      1115.92
      21933.2      1114.94
      21945.0      1114.15
      21956.8      1113.16
      21968.6      1112.25
      21980.4      1111.45
      21992.2      1110.32
      22004.0      1109.55
      22015.8      1108.65
      22027.6      1107.72
      22039.5      1106.71
      22051.3      1105.89
      22063.1      1104.91
      22074.9      1104.00
      22086.7      1102.96
      22098.5      1102.12
      22110.3      1101.23
      22122.1      1100.13
      22133.9      1099.37
      22145.7      1098.47
      22157.6      1097.36
      22169.4      1096.56
      22181.2      1095.60
      22193.0      1094.57
      22204.8      1093.77
      22216.6      1092.75
      22228.4      1091.66
      22240.2      1090.80
      22252.0      1089.75
      22263.8      1088.75
      22275.7      1087.75
      22287.5      1086.72
      22299.3      1085.79
      22311.1      1084.82
      22322.9      1083.77
      22334.7      1082.88
      22346.5      1081.74
      22358.3      1080.85
      22370.1      1079.89
      22382.0      1078.86
      22393.8      1077.95
      22405.6      1076.76
      22417.4      1075.72
      22429.2      1074.70
      22441.0      1073.71
      22452.8      1072.64
      22464.6      1071.45
      22476.4      1070.45
      22488.2      1069.44
      22500.0      1068.28
      22511.9      1067.17
      22523.7      1066.22
      22535.5      1065.15
      22547.3      1064.12
      22559.1      1062.90
      22570.9      1061.92
      22582.7      1060.80
      22594.5      1059.84
      22606.3      1058.68
      22618.2      1057.51
      22630.0      1056.48
      22641.8      1055.30
      22653.6      1054.08
      22665.4      1052.94
      22677.2      1051.91
      22689.0      1050.79
      22700.8      1049.51
      22712.6      1048.39
      22724.4      1047.38
      22736.3      1046.18
      22748.1      1045.02
      22759.9      1043.99
      22771.7      1042.62
      22783.5      1041.68
      22795.3      1040.53
      22807.1      1039.34
      22818.9      1038.04
      22830.7      1037.07
      22842.5      1035.72
      22854.4      1034.62
      22866.2      1033.33
      22878.0      1032.28
      22889.8      1031.09
      22901.6      1029.78
      22913.4      1028.68
      22925.2      1027.59
      22937.0      1026.34
      22948.8      1025.09
      22960.6      1023.94
      22972.5      1022.75
      22984.3      1021.57
      22996.1      1020.35
      23007.9      1019.11
      23019.7      1017.98
      23031.5      1016.70
      23043.3      1015.46
      23055.1      1014.22
      23066.9      1012.99
      23078.8      1011.75
      23090.6      1010.47
      23102.4      1009.36
      23114.2      1008.01
      23126.0      1006.72
      23137.8      1005.70
      23149.6      1004.30
      23161.4      1003.04
      23173.2      1001.86
      23185.0      1000.67
      23196.9      999.331
      23208.7      998.073
      23220.5      996.527
      23232.3      995.275
      23244.1      993.728
      23255.9      992.417
      23267.7      990.976
      23279.5      989.506
      23291.3      988.146
      23303.1      986.627
      23315.0      985.322
      23326.8      983.836
      23338.6      982.444
      23350.4      981.119
      23362.2      979.679
      23374.0      978.107
      23385.8      976.867
      23397.6      975.362
      23409.4      973.771
      23421.3      971.969
      23433.1      970.158
      23444.9      968.541
      23456.7      966.697
      23468.5      965.065
      23480.3      963.209
      23492.1      961.428
      23503.9      959.795
      23515.7      958.068
      23527.5      956.367
      23539.4      954.422
      23551.2      952.934
      23563.0      951.064
      23574.8      949.322
      23586.6      947.580
      23598.4      945.728
      23610.2      943.879
      23622.0      941.753
      23633.8      939.633
      23645.6      937.580
      23657.5      935.618
      23669.3      933.444
      23681.1      931.353
      23692.9      929.446
      23704.7      927.211
      23716.5      925.273
      23728.3      923.083
      23740.1      921.043
      23751.9      918.974
      23763.7      916.922
      23775.6      914.853
      23787.4      912.815
      23799.2      910.748
      23811.0      908.460
      23822.8      906.469
      23834.6      904.255
      23846.4      902.195
      23858.2      899.956
      23870.0      897.766
      23881.8      895.684
      23893.7      893.633
      23905.5      891.309
      23917.3      889.277
      23929.1      886.970
      23940.9      885.023
      23952.7      882.725
      23964.5      880.592
      23976.3      878.468
      23988.1      876.331
      24000.0      874.254
      24011.8      872.176
      24023.6      870.169
      24035.4      868.246
      24047.2      866.380
      24059.0      864.297
      24070.8      862.265
      24082.6      860.382
      24094.4      858.388
      24106.2      856.353
      24118.1      854.352
      24129.9      852.448
      24141.7      850.564
      24153.5      848.444
      24165.3      846.560
      24177.1      844.544
      24188.9      842.624
      24200.7      840.598
      24212.5      838.914
      24224.3      837.169
      24236.2      835.531
      24248.0      833.875
      24259.8      832.108
      24271.6      830.455
      24283.4      828.599
      24295.2      827.110
      24307.0      825.262
      24318.8      823.608
      24330.6      821.900
      24342.4      820.230
      24354.3      818.475
      24366.1      816.880
      24377.9      815.016
      24389.7      813.522
      24401.5      811.716
      24413.3      810.289
      24425.1      808.708
      24436.9      807.242
      24448.7      805.779
      24460.5      804.339
      24472.4      802.782
      24484.2      801.202
      24496.0      799.931
      24507.8      798.209
      24519.6      796.874
      24531.4      795.341
      24543.2      793.840
      24555.0      792.330
      24566.8      790.889
      24578.7      789.332
      24590.5      787.873
      24602.3      786.370
      24614.1      785.057
      24625.9      783.789
      24637.7      782.265
      24649.5      781.019
      24661.3      779.566
      24673.1      778.233
      24684.9      776.971
      24696.8      775.552
      24708.6      774.146
      24720.4      772.838
      24732.2      771.525
      24744.0      770.061
      24755.8      768.892
      24767.6      767.369
      24779.4      766.057
      24791.2      764.650
      24803.0      763.321
      24814.9      762.189
      24826.7      760.852
      24838.5      759.541
      24850.3      758.317
      24862.1      757.101
      24873.9      755.702
      24885.7      754.584
      24897.5      753.287
      24909.3      752.016
      24921.1      750.784
      24933.0      749.486
      24944.8      748.155
      24956.6      747.018
      24968.4      745.715
      24980.2      744.422
      24992.0      743.107
      25003.8      742.042
      25015.6      740.755
      25027.4      739.583
      25039.3      738.409
      25051.1      737.154
      25062.9      736.147
      25074.7      734.862
      25086.5      733.710
      25098.3      732.545
      25110.1      731.356
      25121.9      730.172
      25133.7      729.041
      25145.5      727.759
      25157.4      726.703
      25169.2      725.417
      25181.0      724.384
      25192.8      723.037
      25204.6      722.020
      25216.4      720.873
      25228.2      719.811
      25240.0      718.628
      25251.8      717.565
      25263.6      716.465
      25275.5      715.418
      25287.3      714.235
      25299.1      713.135
      25310.9      712.035
      25322.7      710.942
      25334.5      709.860
      25346.3      708.717
      25358.1      707.692
      25369.9      706.526
      25381.8      705.435
      25393.6      704.297
      25405.4      703.270
      25417.2      702.252
      25429.0      701.201
      25440.8      700.137
      25452.6      699.008
      25464.4      698.103
      25476.2      697.005
      25488.0      695.924
      25499.9      694.992
      25511.7      693.788
      25523.5      692.874
      25535.3      691.784
      25547.1      690.796
      25558.9      689.655
      25570.7      688.709
      25582.5      687.573
      25594.3      686.736
