# spectrum  Type     U-V    B-V    V-R    V-I    V-J    V-K
# ---------------------------------------------------------
#  bpgs_2  O8F     -1.38  -0.32  -0.13  -0.30  -0.77  -0.93
#
# lambda (Angstroms)  flux (phot/lambda)
#----------------------------------------------------------
PHOTLAM
      512.023      22181.3
      524.570      22541.7
      537.117      22342.6
      549.664      22981.7
      562.212      23891.4
      574.759      24227.4
      587.306      24416.1
      599.853      24692.6
      612.401      24915.6
      624.948      24800.6
      637.495      24660.0
      650.042      24908.1
      662.590      25289.6
      675.137      25469.5
      687.684      25272.7
      700.231      25070.9
      712.779      25267.2
      725.326      25716.5
      737.873      25943.1
      750.420      25400.7
      762.968      24792.9
      775.515      24536.6
      788.062      24723.0
      800.609      24911.2
      813.157      24938.9
      825.704      24576.6
      838.251      24197.0
      850.798      23884.8
      863.346      23889.4
      875.893      23934.4
      888.440      24042.3
      900.987      24802.8
      913.535      25736.7
      926.082      29752.7
      938.629      36798.3
      951.177      41500.2
      963.724      44810.2
      976.271      45238.0
      988.818      45196.3
      1001.37      44418.9
      1013.91      43555.8
      1026.46      42617.6
      1039.01      41771.2
      1051.55      41250.1
      1064.10      40749.0
      1076.65      40226.7
      1089.20      39631.6
      1101.74      38813.3
      1114.29      38474.2
      1126.84      38502.3
      1139.39      37697.4
      1151.93      37183.6
      1164.48      36463.6
      1177.03      35291.4
      1189.57      34026.9
      1202.12      32907.4
      1214.67      32363.3
      1227.22      31993.6
      1239.76      31670.3
      1252.31      31020.9
      1264.86      30376.2
      1277.41      29816.8
      1289.95      29050.5
      1302.50      28210.8
      1315.05      27372.2
      1327.59      26632.4
      1340.14      25962.7
      1352.69      25313.1
      1365.24      24782.6
      1377.78      24409.4
      1390.33      24039.5
      1402.88      23667.1
      1415.42      23288.0
      1427.97      22975.0
      1440.52      22731.3
      1453.07      22634.8
      1465.61      22562.5
      1478.16      22479.9
      1490.71      22229.9
      1503.26      21835.6
      1515.80      21208.6
      1528.35      20269.7
      1540.90      19150.2
      1553.44      17961.3
      1565.99      17804.3
      1578.54      18700.9
      1591.09      18772.5
      1603.63      18594.8
      1616.18      18340.7
      1628.73      18091.7
      1641.28      17848.7
      1653.82      17616.6
      1666.37      17369.8
      1678.92      17106.8
      1691.46      16835.1
      1704.01      16587.4
      1716.56      16393.0
      1729.11      16266.1
      1741.65      16137.0
      1754.20      15892.8
      1766.75      15727.1
      1779.30      15621.6
      1791.84      15388.7
      1804.39      15117.5
      1816.94      14832.6
      1829.48      14701.2
      1842.03      14585.5
      1854.58      14317.9
      1867.13      14091.7
      1879.67      13907.4
      1892.22      13725.4
      1904.77      13540.1
      1917.32      13354.1
      1929.86      13255.3
      1942.41      13164.4
      1954.96      13002.3
      1967.50      12814.2
      1980.05      12615.2
      1992.60      12438.9
      2005.15      12272.2
      2017.69      12112.5
      2030.24      11949.5
      2042.79      11822.4
      2055.33      11795.4
      2067.88      11676.2
      2080.43      11496.7
      2092.98      11329.4
      2105.52      11178.4
      2118.07      11046.6
      2130.62      10918.5
      2143.17      10788.7
      2155.71      10653.3
      2168.26      10512.5
      2180.81      10370.0
      2193.35      10234.3
      2205.90      10106.3
      2218.45      9986.54
      2231.00      9872.43
      2243.54      9745.57
      2256.09      9588.58
      2268.64      9446.05
      2281.19      9311.89
      2293.73      9181.01
      2306.28      9061.91
      2318.83      8956.05
      2331.37      8869.64
      2343.92      8777.28
      2356.47      8661.59
      2369.02      8506.74
      2381.56      8348.82
      2394.11      8246.55
      2406.66      8161.88
      2419.20      8084.91
      2431.75      7985.79
      2444.30      7887.48
      2456.85      7797.48
      2469.39      7645.24
      2481.94      7481.68
      2494.49      7369.54
      2507.04      7288.86
      2519.58      7233.89
      2532.13      7207.61
      2544.68      7164.01
      2557.22      7083.66
      2569.77      6994.16
      2582.32      6903.25
      2594.87      6819.39
      2607.41      6740.27
      2619.96      6663.76
      2632.51      6588.19
      2645.06      6513.01
      2657.60      6438.30
      2670.15      6355.20
      2682.70      6274.13
      2695.24      6205.60
      2707.79      6134.65
      2720.34      6059.21
      2732.89      5971.65
      2745.43      5903.25
      2757.98      5860.12
      2770.53      5796.09
      2783.07      5727.13
      2795.62      5662.39
      2808.17      5599.77
      2820.72      5537.79
      2833.26      5474.30
      2845.81      5413.55
      2858.36      5355.98
      2870.91      5299.87
      2883.45      5243.54
      2896.00      5188.00
      2908.55      5131.34
      2921.09      5073.61
      2933.64      5014.62
      2946.19      4958.36
      2958.74      4904.74
      2971.28      4848.32
      2983.83      4791.03
      2996.38      4734.14
      3008.93      4680.74
      3021.47      4630.17
      3034.02      4585.51
      3046.57      4544.04
      3059.11      4504.26
      3071.66      4458.11
      3084.21      4410.32
      3096.76      4362.22
      3109.30      4314.71
      3121.85      4267.72
      3134.40      4222.18
      3146.95      4181.77
      3159.49      4144.86
      3172.04      4105.33
      3184.59      4059.63
      3197.13      4005.23
      3209.68      3958.03
      3222.23      3918.73
      3234.78      3896.65
      3247.32      3972.34
      3259.87      4055.94
      3272.42      3834.47
      3284.97      3731.17
      3297.51      3651.78
      3310.06      3648.74
      3322.61      3654.74
      3335.15      3650.59
      3347.70      3554.16
      3360.25      3519.10
      3372.80      3452.67
      3385.34      3449.03
      3397.89      3381.26
      3410.44      3355.86
      3422.98      3347.10
      3435.53      3281.38
      3448.08      3245.08
      3460.63      3212.47
      3473.17      3181.53
      3485.72      3154.51
      3498.27      3154.91
      3510.82      3153.15
      3523.36      3114.04
      3535.91      3088.03
      3548.46      3012.86
      3561.00      2994.55
      3573.55      3011.19
      3586.10      2995.67
      3598.65      3011.17
      3611.19      2991.56
      3623.74      2946.34
      3636.29      2920.41
      3648.84      2939.41
      3661.38      2866.72
      3673.93      2809.58
      3686.48      2760.88
      3699.02      2696.74
      3711.57      2642.97
      3724.12      2640.60
      3736.67      2649.69
      3749.21      2637.12
      3761.76      2590.78
      3774.31      2639.57
      3786.86      2628.49
      3799.40      2607.61
      3811.95      2647.84
      3824.50      2594.86
      3837.04      2536.69
      3849.59      2537.76
      3862.14      2538.17
      3874.69      2438.80
      3887.23      2366.71
      3899.78      2403.51
      3912.33      2431.98
      3924.87      2399.49
      3937.42      2382.50
      3949.97      2398.09
      3962.52      2315.81
      3975.06      2318.65
      3987.61      2410.64
      4000.16      2434.92
      4012.71      2401.39
      4025.25      2340.36
      4037.80      2357.22
      4050.35      2389.66
      4062.89      2379.55
      4075.44      2356.33
      4087.99      2267.46
      4100.54      2193.03
      4113.08      2297.61
      4125.63      2398.28
      4138.18      2345.39
      4150.73      2276.12
      4163.27      2250.01
      4175.82      2226.86
      4188.37      2176.38
      4200.91      2125.79
      4213.46      2173.96
      4226.01      2148.54
      4238.56      2122.44
      4251.10      2120.69
      4263.65      2094.03
      4276.20      2102.21
      4288.74      2104.08
      4301.29      2084.61
      4313.84      2056.79
      4326.39      2010.91
      4338.93      1916.75
      4351.48      1945.34
      4364.03      1988.94
      4376.58      1962.83
      4389.12      1908.18
      4401.67      1903.43
      4414.22      1898.19
      4426.76      1857.41
      4439.31      1846.51
      4451.86      1849.37
      4464.41      1795.88
      4476.95      1791.30
      4489.50      1811.17
      4502.05      1793.05
      4514.60      1720.11
      4527.14      1707.79
      4539.69      1697.36
      4552.24      1705.45
      4564.78      1704.62
      4577.33      1686.79
      4589.88      1678.63
      4602.43      1684.25
      4614.97      1709.74
      4627.52      1741.04
      4640.07      1766.21
      4652.62      1708.19
      4665.16      1661.17
      4677.71      1657.46
      4690.26      1648.55
      4702.81      1614.86
      4715.35      1586.63
      4727.90      1581.82
      4740.45      1570.50
      4752.99      1560.09
      4765.54      1557.65
      4778.09      1541.77
      4790.64      1499.22
      4803.18      1488.40
      4815.73      1476.91
      4828.28      1452.15
      4840.82      1417.42
      4853.37      1374.26
      4865.92      1353.11
      4878.47      1379.10
      4891.01      1387.36
      4903.56      1372.86
      4916.11      1353.74
      4928.66      1359.81
      4941.20      1343.17
      4953.75      1326.55
      4966.30      1312.36
      4978.84      1305.11
      4991.39      1297.88
      5003.94      1290.58
      5016.49      1275.55
      5029.03      1266.23
      5041.58      1253.38
      5054.13      1244.84
      5066.67      1239.48
      5079.22      1234.08
      5091.77      1215.90
      5104.32      1199.14
      5116.86      1194.96
      5129.41      1195.95
      5141.96      1190.96
      5154.51      1186.50
      5167.05      1172.21
      5179.60      1168.30
      5192.15      1154.61
      5204.69      1147.34
      5217.24      1127.20
      5229.79      1119.40
      5242.34      1113.70
      5254.88      1120.11
      5267.43      1109.22
      5279.98      1099.48
      5292.53      1090.04
      5305.07      1086.04
      5317.62      1081.53
      5330.17      1076.21
      5342.71      1066.55
      5355.26      1054.33
      5367.81      1054.36
      5380.36      1049.58
      5392.90      1042.58
      5405.45      1022.17
      5418.00      1010.45
      5430.55      1024.74
      5443.09      1017.81
      5455.64      999.755
      5468.19      989.829
      5480.73      980.440
      5493.28      980.958
      5505.83      980.816
      5518.38      977.836
      5530.92      977.249
      5543.47      970.901
      5556.02      966.756
      5568.57      969.765
      5581.11      966.218
      5593.66      946.469
      5606.21      941.251
      5618.75      942.768
      5631.30      946.270
      5643.85      940.647
      5656.40      933.708
      5668.94      926.836
      5681.49      920.079
      5694.04      913.398
      5706.58      906.742
      5719.13      900.089
      5731.68      893.644
      5744.23      884.704
      5756.77      871.347
      5769.32      855.430
      5781.87      842.648
      5794.41      843.872
      5806.96      845.365
      5819.51      844.925
      5832.06      836.523
      5844.60      824.331
      5857.15      809.171
      5869.70      803.444
      5882.25      803.075
      5894.79      807.773
      5907.34      810.977
      5919.89      811.560
      5932.44      804.809
      5944.98      797.049
      5957.53      789.701
      5970.08      782.115
      5982.62      774.481
      5995.17      767.075
      6007.72      761.744
      6020.27      758.306
      6032.81      757.454
      6045.36      756.335
      6057.91      754.307
      6070.45      752.073
      6083.00      749.735
      6095.55      747.363
      6108.10      746.706
      6120.64      745.517
      6133.19      736.575
      6145.74      726.654
      6158.29      716.827
      6170.83      708.296
      6183.38      702.797
      6195.93      703.457
      6208.47      707.766
      6221.02      711.849
      6233.57      707.135
      6246.12      698.462
      6258.66      686.954
      6271.21      677.684
      6283.76      671.696
      6296.30      671.111
      6308.85      670.412
      6321.40      669.581
      6333.95      669.164
      6346.49      668.665
      6359.04      667.814
      6371.59      664.919
      6384.14      660.437
      6396.68      654.175
      6409.23      648.809
      6421.78      643.965
      6434.32      639.277
      6446.87      634.715
      6459.42      630.027
      6471.97      623.738
      6484.51      619.533
      6497.06      619.228
      6509.61      617.754
      6522.16      620.767
      6534.70      639.209
      6547.25      655.789
      6559.80      666.248
      6572.34      653.657
      6584.89      638.002
      6597.44      624.181
      6609.99      613.336
      6622.53      604.155
      6635.08      596.667
      6647.63      583.097
      6660.18      567.689
      6672.72      565.501
      6685.27      569.785
      6697.82      578.668
      6710.36      576.223
      6722.91      569.793
      6735.46      562.973
      6748.01      559.018
      6760.55      557.298
      6773.10      557.574
      6785.65      554.251
      6798.20      546.997
      6810.74      545.755
      6823.29      546.935
      6835.84      548.925
      6848.38      538.659
      6860.93      522.714
      6873.48      512.041
      6886.03      507.693
      6898.57      510.077
      6911.12      518.574
      6923.67      524.857
      6936.21      523.180
      6948.76      521.078
      6961.31      519.053
      6973.86      517.564
      6986.40      511.251
      6998.95      501.216
      7011.50      499.113
      7024.05      496.253
      7036.59      488.676
      7049.14      483.070
      7061.69      479.170
      7074.23      477.673
      7086.78      478.416
      7099.33      480.264
      7111.88      477.385
      7124.42      473.685
      7136.97      470.216
      7149.52      463.970
      7162.07      458.273
      7174.61      458.175
      7187.16      459.836
      7199.71      461.422
      7212.25      456.351
      7224.80      452.177
      7237.35      450.995
      7249.90      446.787
      7262.44      442.818
      7274.99      442.694
      7287.54      446.104
      7300.09      450.317
      7312.63      446.472
      7325.18      441.255
      7337.73      436.139
      7350.27      431.933
      7362.82      427.672
      7375.37      422.590
      7387.92      419.135
      7400.46      417.453
      7413.01      418.844
      7425.56      417.109
      7438.11      411.386
      7450.65      409.240
      7463.20      408.597
      7475.75      408.790
      7488.29      411.159
      7500.84      413.296
      7513.39      409.229
      7525.94      407.012
      7538.48      408.241
      7551.03      414.048
      7563.58      411.755
      7576.12      389.791
      7588.67      359.341
      7601.22      337.845
      7613.77      367.019
      7626.31      391.160
      7638.86      402.383
      7651.41      398.903
      7663.96      387.524
      7676.50      368.793
      7689.05      364.706
      7701.60      368.633
      7714.15      376.000
      7726.69      378.987
      7739.24      377.677
      7751.79      375.243
      7764.33      373.111
      7776.88      371.903
      7789.43      369.959
      7801.98      368.530
      7814.52      369.757
      7827.07      367.831
      7839.62      363.530
      7852.16      361.453
      7864.71      358.298
      7877.26      352.794
      7889.81      347.489
      7902.35      345.248
      7914.90      351.436
      7927.45      351.698
      7939.99      348.121
      7952.54      349.706
      7965.09      345.715
      7977.64      333.882
      7990.18      336.459
      8002.73      341.736
      8015.28      340.878
      8027.83      339.797
      8040.37      338.640
      8052.92      336.314
      8065.47      335.632
      8078.02      336.736
      8090.56      332.540
      8103.11      327.391
      8115.66      324.246
      8128.20      327.996
      8140.75      333.293
      8153.30      327.696
      8165.85      321.725
      8178.39      318.188
      8190.94      324.984
      8203.49      329.814
      8216.03      324.245
      8228.58      318.638
      8241.13      314.489
      8253.68      315.063
      8266.22      317.289
      8278.77      319.551
      8291.32      313.419
      8303.86      306.193
      8316.41      301.472
      8328.96      306.888
      8341.51      313.042
      8354.05      304.363
      8366.60      302.035
      8379.15      305.804
      8391.70      301.150
      8404.24      300.122
      8416.79      308.246
      8429.34      307.202
      8441.88      303.476
      8454.43      304.473
      8466.98      294.313
      8479.53      277.672
      8492.07      280.807
      8504.62      287.886
      8517.17      293.977
      8529.72      289.787
      8542.26      283.359
      8554.81      282.467
      8567.36      283.782
      8579.90      284.811
      8592.45      276.791
      8605.00      270.487
      8617.55      269.806
      8630.09      279.886
      8642.64      289.221
      8655.19      286.335
      8667.73      281.947
      8680.28      277.196
      8692.83      272.945
      8705.38      270.072
      8717.92      269.133
      8730.47      270.679
      8743.02      270.955
      8755.57      266.581
      8768.11      268.016
      8780.66      272.004
      8793.21      270.854
      8805.76      271.766
      8818.30      274.946
      8830.85      268.222
      8843.40      260.904
      8855.94      258.492
      8868.49      254.765
      8881.04      252.527
      8893.59      259.522
      8906.13      260.545
      8918.68      255.305
      8931.23      260.385
      8943.78      263.741
      8956.32      258.250
      8968.87      251.410
      8981.42      244.685
      8993.96      240.355
      9006.51      240.421
      9019.06      244.716
      9031.61      251.843
      9044.15      254.471
      9056.70      248.398
      9069.25      246.422
      9081.80      246.044
      9094.34      244.357
      9106.89      244.292
      9119.44      244.410
      9131.98      236.487
      9144.53      228.877
      9157.08      224.848
      9169.63      226.280
      9182.17      230.539
      9194.72      236.434
      9207.27      234.170
      9219.81      226.065
      9232.36      220.605
      9244.91      218.372
      9257.46      220.464
      9270.00      228.572
      9282.55      234.607
      9295.10      229.013
      9307.65      215.035
      9320.19      202.826
      9332.74      226.046
      9345.29      236.823
      9357.83      224.486
      9370.38      223.497
      9382.93      228.660
      9395.48      238.446
      9408.02      230.054
      9420.57      209.260
      9433.12      184.619
      9445.66      184.978
      9458.21      213.727
      9470.76      223.202
      9483.31      219.856
      9495.85      202.331
      9508.40      200.447
      9520.95      206.226
      9533.50      205.178
      9546.04      194.463
      9558.59      178.761
      9571.14      198.363
      9583.69      214.704
      9596.23      205.656
      9608.78      207.167
      9621.33      212.474
      9633.87      209.057
      9646.42      210.479
      9658.97      216.341
      9671.52      214.293
      9684.06      212.462
      9696.61      214.266
      9709.16      209.572
      9721.71      203.031
      9734.25      200.682
      9746.80      201.278
      9759.35      203.622
      9771.89      202.780
      9784.44      201.044
      9796.99      199.311
      9809.53      201.337
      9822.08      201.944
      9834.63      193.527
      9847.18      191.463
      9859.72      194.111
      9872.27      190.780
      9884.82      187.383
      9897.37      186.312
      9909.91      192.571
      9922.46      197.171
      9935.01      189.853
      9947.55      187.998
      9960.10      189.321
      9972.65      183.480
      9985.20      181.283
      9997.74      184.697
      10010.3      179.108
      10022.8      172.678
      10035.4      172.229
      10047.9      175.020
      10060.5      178.697
      10073.0      177.956
      10085.6      174.876
      10098.1      170.226
      10110.7      168.774
      10123.2      167.758
      10135.8      165.498
      10148.3      164.424
      10160.9      163.415
      10173.4      159.517
      10186.0      160.908
      10198.5      167.192
      10211.0      162.871
      10223.6      160.506
      10236.1      167.853
      10248.7      166.209
      10261.2      159.849
      10273.8      154.669
      10286.3      154.731
      10298.9      159.018
      10311.4      157.475
      10324.0      153.904
      10336.5      149.565
      10349.1      149.076
      10361.6      150.267
      10374.2      150.816
      10386.7      150.312
      10399.3      149.251
      10411.8      150.632
      10424.4      149.308
      10436.9      143.260
      10449.4      146.593
      10462.0      152.429
      10474.5      153.069
      10487.1      154.186
      10499.6      155.524
      10512.2      153.455
      10524.7      148.440
      10537.3      140.682
      10549.8      139.613
      10562.4      141.296
      10574.9      143.071
      10587.5      143.405
      10600.0      142.750
      10612.6      142.206
      10625.1      141.683
      10637.7      141.183
      10650.2      140.671
      10662.7      140.148
      10675.3      139.645
      10687.8      139.120
      10700.4      138.616
      10712.9      138.089
      10725.5      137.594
      10738.0      137.066
      10750.6      136.553
      10763.1      136.044
      10775.7      135.532
      10788.2      135.026
      10800.8      134.510
      10813.3      134.070
      10825.9      133.618
      10838.4      133.177
      10851.0      132.734
      10863.5      132.296
      10876.1      131.845
      10888.6      131.409
      10901.1      130.964
      10913.7      130.526
      10926.2      130.076
      10938.8      129.638
      10951.3      129.186
      10963.9      128.748
      10976.4      128.305
      10989.0      127.863
      11001.5      127.435
      11014.1      127.034
      11026.6      126.654
      11039.2      126.266
      11051.7      125.870
      11064.3      125.496
      11076.8      125.097
      11089.4      124.716
      11101.9      124.332
      11114.4      123.935
      11127.0      123.556
      11139.5      123.162
      11152.1      122.781
      11164.6      122.393
      11177.2      121.999
      11189.7      121.622
      11202.3      121.244
      11214.8      120.889
      11227.4      120.551
      11239.9      120.204
      11252.5      119.860
      11265.0      119.522
      11277.6      119.177
      11290.1      118.822
      11302.7      118.490
      11315.2      118.142
      11327.8      117.797
      11340.3      117.450
      11352.8      117.113
      11365.4      116.769
      11377.9      116.421
      11390.5      116.077
      11403.0      115.740
      11415.6      115.427
      11428.1      115.127
      11440.7      114.808
      11453.2      114.501
      11465.8      114.188
      11478.3      113.873
      11490.9      113.566
      11503.4      113.253
      11516.0      112.951
      11528.5      112.630
      11541.1      112.325
      11553.6      112.007
      11566.1      111.705
      11578.7      111.392
      11591.2      111.078
      11603.8      110.783
      11616.3      110.489
      11628.9      110.201
      11641.4      109.922
      11654.0      109.630
      11666.5      109.352
      11679.1      109.060
      11691.6      108.774
      11704.2      108.486
      11716.7      108.198
      11729.3      107.916
      11741.8      107.632
      11754.4      107.343
      11766.9      107.058
      11779.5      106.769
      11792.0      106.489
      11804.5      106.202
      11817.1      105.943
      11829.6      105.664
      11842.2      105.397
      11854.7      105.122
      11867.3      104.861
      11879.8      104.592
      11892.4      104.315
      11904.9      104.050
      11917.5      103.777
      11930.0      103.510
      11942.6      103.243
      11955.1      102.970
      11967.7      102.702
      11980.2      102.430
      11992.8      102.161
      12005.3      101.893
      12017.9      101.645
      12030.4      101.376
      12042.9      101.120
      12055.5      100.861
      12068.0      100.605
      12080.6      100.344
      12093.1      100.084
      12105.7      99.8260
      12118.2      99.5628
      12130.8      99.3111
      12143.3      99.0493
      12155.9      98.7876
      12168.4      98.5364
      12181.0      98.2696
      12193.5      98.0183
      12206.1      97.7547
      12218.6      97.5006
      12231.2      97.2499
      12243.7      96.9975
      12256.2      96.7434
      12268.8      96.4887
      12281.3      96.2343
      12293.9      95.9817
      12306.4      95.7263
      12319.0      95.4755
      12331.5      95.2184
      12344.1      94.9667
      12356.6      94.7108
      12369.2      94.4615
      12381.7      94.2044
      12394.3      93.9485
      12406.8      93.6961
      12419.4      93.4278
      12431.9      93.1630
      12444.5      92.9028
      12457.0      92.6388
      12469.6      92.3755
      12482.1      92.1135
      12494.6      91.8476
      12507.2      91.5839
      12519.7      91.3235
      12532.3      91.0615
      12544.8      90.7929
      12557.4      90.5308
      12569.9      90.2697
      12582.5      90.0049
      12595.0      89.7488
      12607.6      89.4873
      12620.1      89.2591
      12632.7      89.0094
      12645.2      88.7717
      12657.8      88.5380
      12670.3      88.2922
      12682.9      88.0488
      12695.4      87.8164
      12708.0      87.5735
      12720.5      87.3302
      12733.0      87.0944
      12745.6      86.8565
      12758.1      86.6152
      12770.7      86.3697
      12783.2      86.1357
      12795.8      85.8939
      12808.3      85.6655
      12820.9      85.4317
      12833.4      85.2112
      12846.0      84.9822
      12858.5      84.7564
      12871.1      84.5290
      12883.6      84.3060
      12896.2      84.0760
      12908.7      83.8437
      12921.3      83.6252
      12933.8      83.3937
      12946.3      83.1738
      12958.9      82.9401
      12971.4      82.7180
      12984.0      82.4875
      12996.5      82.2657
      13009.1      82.0432
      13021.6      81.8319
      13034.2      81.6188
      13046.7      81.4061
      13059.3      81.1870
      13071.8      80.9764
      13084.4      80.7602
      13096.9      80.5491
      13109.5      80.3342
      13122.0      80.1204
      13134.6      79.9041
      13147.1      79.6958
      13159.7      79.4756
      13172.2      79.2656
      13184.7      79.0516
      13197.3      78.8390
      13209.8      78.6281
      13222.4      78.4289
      13234.9      78.2294
      13247.5      78.0298
      13260.0      77.8218
      13272.6      77.6203
      13285.1      77.4185
      13297.7      77.2176
      13310.2      77.0147
      13322.8      76.8128
      13335.3      76.6106
      13347.9      76.4078
      13360.4      76.2053
      13373.0      76.0057
      13385.5      75.7997
      13398.0      75.6024
      13410.6      75.4087
      13423.1      75.2123
      13435.7      75.0227
      13448.2      74.8311
      13460.8      74.6421
      13473.3      74.4459
      13485.9      74.2567
      13498.4      74.0618
      13511.0      73.8730
      13523.5      73.6813
      13536.1      73.4925
      13548.6      73.2973
      13561.2      73.1083
      13573.7      72.9130
      13586.3      72.7261
      13598.8      72.5306
      13611.4      72.3476
      13623.9      72.1685
      13636.4      71.9850
      13649.0      71.8048
      13661.5      71.6226
      13674.1      71.4442
      13686.6      71.2573
      13699.2      71.0786
      13711.7      70.8980
      13724.3      70.7119
      13736.8      70.5342
      13749.4      70.3554
      13761.9      70.1712
      13774.5      69.9879
      13787.0      69.8128
      13799.6      69.6256
      13812.1      69.4553
      13824.7      69.2840
      13837.2      69.1082
      13849.7      68.9445
      13862.3      68.7646
      13874.8      68.5980
      13887.4      68.4256
      13899.9      68.2521
      13912.5      68.0803
      13925.0      67.9149
      13937.6      67.7385
      13950.1      67.5668
      13962.7      67.3941
      13975.2      67.2257
      13987.8      67.0502
      14000.3      66.8821
      14012.9      66.7202
      14025.4      66.5538
      14038.0      66.3899
      14050.5      66.2280
      14063.1      66.0627
      14075.6      65.9053
      14088.1      65.7379
      14100.7      65.5754
      14113.2      65.4102
      14125.8      65.2494
      14138.3      65.0888
      14150.9      64.9212
      14163.4      64.7642
      14176.0      64.5932
      14188.5      64.4349
      14201.1      64.2721
      14213.6      64.1141
      14226.2      63.9658
      14238.7      63.8081
      14251.3      63.6493
      14263.8      63.4988
      14276.4      63.3471
      14288.9      63.1889
      14301.5      63.0317
      14314.0      62.8826
      14326.5      62.7260
      14339.1      62.5698
      14351.6      62.4179
      14364.2      62.2628
      14376.7      62.1059
      14389.3      61.9559
      14401.8      61.7985
      14414.4      61.6532
      14426.9      61.5036
      14439.5      61.3597
      14452.0      61.2132
      14464.6      61.0624
      14477.1      60.9181
      14489.7      60.7728
      14502.2      60.6225
      14514.8      60.4767
      14527.3      60.3329
      14539.8      60.1814
      14552.4      60.0375
      14564.9      59.8872
      14577.5      59.7405
      14590.0      59.5963
      14602.6      59.4498
      14615.1      59.3119
      14627.7      59.1696
      14640.2      59.0299
      14652.8      58.8928
      14665.3      58.7503
      14677.9      58.6121
      14690.4      58.4702
      14703.0      58.3330
      14715.5      58.1957
      14728.1      58.0544
      14740.6      57.9155
      14753.2      57.7731
      14765.7      57.6374
      14778.2      57.4946
      14790.8      57.3549
      14803.3      57.2209
      14815.9      57.0836
      14828.4      56.9527
      14841.0      56.8216
      14853.5      56.6849
      14866.1      56.5542
      14878.6      56.4193
      14891.2      56.2909
      14903.7      56.1559
      14916.3      56.0222
      14928.8      55.8899
      14941.4      55.7558
      14953.9      55.6266
      14966.5      55.4938
      14979.0      55.3567
      14991.6      55.2277
      15004.1      55.0940
      15016.6      54.9690
      15029.2      54.8428
      15041.7      54.7186
      15054.3      54.5880
      15066.8      54.4617
      15079.4      54.3406
      15091.9      54.2118
      15104.5      54.0833
      15117.0      53.9587
      15129.6      53.8318
      15142.1      53.7076
      15154.7      53.5768
      15167.2      53.4548
      15179.8      53.3271
      15192.3      53.2015
      15204.9      53.0778
      15217.4      52.9551
      15229.9      52.8370
      15242.5      52.7184
      15255.0      52.5968
      15267.6      52.4770
      15280.1      52.3544
      15292.7      52.2399
      15305.2      52.1135
      15317.8      52.0000
      15330.3      51.8748
      15342.9      51.7582
      15355.4      51.6365
      15368.0      51.5137
      15380.5      51.3993
      15393.1      51.2750
      15405.6      51.1609
      15418.2      51.0424
      15430.7      50.9300
      15443.3      50.8147
      15455.8      50.7007
      15468.3      50.5871
      15480.9      50.4710
      15493.4      50.3609
      15506.0      50.2442
      15518.5      50.1260
      15531.1      50.0159
      15543.6      49.9008
      15556.2      49.7846
      15568.7      49.6714
      15581.3      49.5557
      15593.8      49.4422
      15606.4      49.3312
      15618.9      49.2206
      15631.5      49.1129
      15644.0      49.0030
      15656.6      48.8938
      15669.1      48.7857
      15681.7      48.6747
      15694.2      48.5666
      15706.7      48.4558
      15719.3      48.3485
      15731.8      48.2392
      15744.4      48.1289
      15756.9      48.0213
      15769.5      47.9090
      15782.0      47.8035
      15794.6      47.6944
      15807.1      47.5860
      15819.7      47.4815
      15832.2      47.3797
      15844.8      47.2723
      15857.3      47.1713
      15869.9      47.0650
      15882.4      46.9620
      15895.0      46.8560
      15907.5      46.7547
      15920.0      46.6492
      15932.6      46.5467
      15945.1      46.4389
      15957.7      46.3370
      15970.2      46.2344
      15982.8      46.1287
      15995.3      46.0257
      16007.9      45.9237
      16020.4      45.8215
      16033.0      45.7264
      16045.5      45.6248
      16058.1      45.5279
      16070.6      45.4269
      16083.2      45.3276
      16095.7      45.2272
      16108.3      45.1304
      16120.8      45.0286
      16133.3      44.9321
      16145.9      44.8325
      16158.4      44.7324
      16171.0      44.6317
      16183.5      44.5343
      16196.1      44.4317
      16208.6      44.3386
      16221.2      44.2434
      16233.7      44.1478
      16246.3      44.0539
      16258.8      43.9588
      16271.4      43.8623
      16283.9      43.7682
      16296.5      43.6733
      16309.0      43.5804
      16321.6      43.4830
      16334.1      43.3887
      16346.7      43.2942
      16359.2      43.1993
      16371.7      43.1030
      16384.3      43.0075
      16396.8      42.9176
      16409.4      42.8243
      16421.9      42.7293
      16434.5      42.6389
      16447.0      42.5528
      16459.6      42.4600
      16472.1      42.3724
      16484.7      42.2786
      16497.2      42.1851
      16509.8      42.1007
      16522.3      42.0028
      16534.9      41.9184
      16547.4      41.8257
      16560.0      41.7365
      16572.5      41.6399
      16585.1      41.5601
      16597.6      41.4598
      16610.1      41.3788
      16622.7      41.2898
      16635.2      41.2004
      16647.8      41.1166
      16660.3      41.0289
      16672.9      40.9466
      16685.4      40.8550
      16698.0      40.7724
      16710.5      40.6855
      16723.1      40.5983
      16735.6      40.5116
      16748.2      40.4215
      16760.7      40.3402
      16773.3      40.2538
      16785.8      40.1629
      16798.4      40.0773
      16810.9      39.9981
      16823.4      39.9141
      16836.0      39.8318
      16848.5      39.7474
      16861.1      39.6614
      16873.6      39.5860
      16886.2      39.4975
      16898.7      39.4161
      16911.3      39.3311
      16923.8      39.2533
      16936.4      39.1662
      16948.9      39.0844
      16961.5      39.0070
      16974.0      38.9156
      16986.6      38.8369
      16999.1      38.7519
      17011.7      38.6751
      17024.2      38.5981
      17036.8      38.5147
      17049.3      38.4350
      17061.8      38.3608
      17074.4      38.2758
      17086.9      38.2017
      17099.5      38.1233
      17112.0      38.0413
      17124.6      37.9598
      17137.1      37.8826
      17149.7      37.8049
      17162.2      37.7265
      17174.8      37.6451
      17187.3      37.5668
      17199.9      37.4884
      17212.4      37.4099
      17225.0      37.3364
      17237.5      37.2573
      17250.1      37.1840
      17262.6      37.1118
      17275.1      37.0298
      17287.7      36.9588
      17300.2      36.8766
      17312.8      36.8060
      17325.3      36.7299
      17337.9      36.6559
      17350.4      36.5719
      17363.0      36.5020
      17375.5      36.4258
      17388.1      36.3525
      17400.6      36.2723
      17413.2      36.2024
      17425.7      36.1308
      17438.3      36.0544
      17450.8      35.9867
      17463.4      35.9129
      17475.9      35.8395
      17488.5      35.7690
      17501.0      35.6916
      17513.5      35.6249
      17526.1      35.5506
      17538.6      35.4782
      17551.2      35.4046
      17563.7      35.3341
      17576.3      35.2642
      17588.8      35.1887
      17601.4      35.1150
      17613.9      35.0471
      17626.5      34.9775
      17639.0      34.9097
      17651.6      34.8358
      17664.1      34.7682
      17676.7      34.6977
      17689.2      34.6322
      17701.8      34.5569
      17714.3      34.4910
      17726.9      34.4218
      17739.4      34.3485
      17751.9      34.2808
      17764.5      34.2116
      17777.0      34.1428
      17789.6      34.0693
      17802.1      34.0021
      17814.7      33.9357
      17827.2      33.8688
      17839.8      33.8048
      17852.3      33.7385
      17864.9      33.6704
      17877.4      33.5993
      17890.0      33.5395
      17902.5      33.4687
      17915.1      33.4059
      17927.6      33.3354
      17940.2      33.2700
      17952.7      33.2045
      17965.2      33.1356
      17977.8      33.0735
      17990.3      33.0047
      18002.9      32.9392
      18015.4      32.8762
      18028.0      32.8066
      18040.5      32.7484
      18053.1      32.6817
      18065.6      32.6212
      18078.2      32.5531
      18090.7      32.4914
      18103.3      32.4256
      18115.8      32.3626
      18128.4      32.2984
      18140.9      32.2357
      18153.5      32.1711
      18166.0      32.1069
      18178.6      32.0424
      18191.1      31.9746
      18203.6      31.9168
      18216.2      31.8571
      18228.7      31.7918
      18241.3      31.7340
      18253.8      31.6673
      18266.4      31.6093
      18278.9      31.5506
      18291.5      31.4862
      18304.0      31.4285
      18316.6      31.3630
      18329.1      31.3050
      18341.7      31.2438
      18354.2      31.1809
      18366.8      31.1224
      18379.3      31.0576
      18391.9      30.9978
      18404.4      30.9390
      18416.9      30.8774
      18429.5      30.8220
      18442.0      30.7614
      18454.6      30.7025
      18467.1      30.6415
      18479.7      30.5883
      18492.2      30.5257
      18504.8      30.4652
      18517.3      30.4107
      18529.9      30.3497
      18542.4      30.2881
      18555.0      30.2320
      18567.5      30.1708
      18580.1      30.1165
      18592.6      30.0535
      18605.2      29.9949
      18617.7      29.9420
      18630.3      29.8868
      18642.8      29.8236
      18655.3      29.7708
      18667.9      29.7162
      18680.4      29.6580
      18693.0      29.6015
      18705.5      29.5450
      18718.1      29.4885
      18730.6      29.4336
      18743.2      29.3737
      18755.7      29.3182
      18768.3      29.2627
      18780.8      29.2082
      18793.4      29.1467
      18805.9      29.0960
      18818.5      29.0389
      18831.0      28.9858
      18843.6      28.9330
      18856.1      28.8755
      18868.7      28.8246
      18881.2      28.7668
      18893.7      28.7170
      18906.3      28.6572
      18918.8      28.6064
      18931.4      28.5533
      18943.9      28.4977
      18956.5      28.4449
      18969.0      28.3886
      18981.6      28.3339
      18994.1      28.2789
      19006.7      28.2289
      19019.2      28.1776
      19031.8      28.1205
      19044.3      28.0744
      19056.9      28.0182
      19069.4      27.9672
      19082.0      27.9151
      19094.5      27.8630
      19107.0      27.8126
      19119.6      27.7592
      19132.1      27.7045
      19144.7      27.6546
      19157.2      27.6044
      19169.8      27.5462
      19182.3      27.4982
      19194.9      27.4469
      19207.4      27.3948
      19220.0      27.3451
      19232.5      27.2965
      19245.1      27.2448
      19257.6      27.1948
      19270.2      27.1458
      19282.7      27.0920
      19295.3      27.0474
      19307.8      26.9918
      19320.4      26.9467
      19332.9      26.8927
      19345.4      26.8431
      19358.0      26.7944
      19370.5      26.7439
      19383.1      26.6945
      19395.6      26.6413
      19408.2      26.5963
      19420.7      26.5485
      19433.3      26.4969
      19445.8      26.4486
      19458.4      26.4035
      19470.9      26.3542
      19483.5      26.3055
      19496.0      26.2586
      19508.6      26.2111
      19521.1      26.1610
      19533.7      26.1120
      19546.2      26.0649
      19558.7      26.0175
      19571.3      25.9691
      19583.8      25.9211
      19596.4      25.8720
      19608.9      25.8259
      19621.5      25.7812
      19634.0      25.7311
      19646.6      25.6866
      19659.1      25.6394
      19671.7      25.5950
      19684.2      25.5469
      19696.8      25.5025
      19709.3      25.4545
      19721.9      25.4087
      19734.4      25.3636
      19747.0      25.3130
      19759.5      25.2701
      19772.1      25.2224
      19784.6      25.1786
      19797.1      25.1314
      19809.7      25.0844
      19822.2      25.0414
      19834.8      24.9982
      19847.3      24.9519
      19859.9      24.9060
      19872.4      24.8623
      19885.0      24.8177
      19897.5      24.7725
      19910.1      24.7318
      19922.6      24.6837
      19935.2      24.6385
      19947.7      24.5952
      19960.3      24.5510
      19972.8      24.5047
      19985.4      24.4611
      19997.9      24.4182
      20010.5      24.3726
      20023.0      24.3299
      20035.5      24.2904
      20048.1      24.2437
      20060.6      24.2027
      20073.2      24.1587
      20085.7      24.1161
      20098.3      24.0731
      20110.8      24.0290
      20123.4      23.9871
      20135.9      23.9457
      20148.5      23.9011
      20161.0      23.8581
      20173.6      23.8174
      20186.1      23.7712
      20198.7      23.7288
      20211.2      23.6908
      20223.8      23.6460
      20236.3      23.6047
      20248.8      23.5654
      20261.4      23.5210
      20273.9      23.4816
      20286.5      23.4397
      20299.0      23.4012
      20311.6      23.3562
      20324.1      23.3145
      20336.7      23.2762
      20349.2      23.2341
      20361.8      23.1908
      20374.3      23.1506
      20386.9      23.1099
      20399.4      23.0690
      20412.0      23.0294
      20424.5      22.9875
      20437.1      22.9493
      20449.6      22.9093
      20462.1      22.8703
      20474.7      22.8282
      20487.2      22.7894
      20499.8      22.7499
      20512.3      22.7100
      20524.9      22.6688
      20537.4      22.6287
      20550.0      22.5908
      20562.5      22.5515
      20575.1      22.5097
      20587.6      22.4699
      20600.2      22.4336
      20612.7      22.3900
      20625.3      22.3538
      20637.8      22.3161
      20650.4      22.2787
      20662.9      22.2400
      20675.5      22.1994
      20688.0      22.1615
      20700.5      22.1257
      20713.1      22.0860
      20725.6      22.0468
      20738.2      22.0072
      20750.7      21.9687
      20763.3      21.9318
      20775.8      21.8951
      20788.4      21.8564
      20800.9      21.8155
      20813.5      21.7799
      20826.0      21.7433
      20838.6      21.7047
      20851.1      21.6701
      20863.7      21.6307
      20876.2      21.5954
      20888.8      21.5587
      20901.3      21.5218
      20913.9      21.4822
      20926.4      21.4487
      20938.9      21.4078
      20951.5      21.3729
      20964.0      21.3376
      20976.6      21.3002
      20989.1      21.2626
      21001.7      21.2242
      21014.2      21.1884
      21026.8      21.1549
      21039.3      21.1162
      21051.9      21.0837
      21064.4      21.0472
      21077.0      21.0098
      21089.5      20.9751
      21102.1      20.9411
      21114.6      20.9044
      21127.2      20.8671
      21139.7      20.8324
      21152.3      20.7984
      21164.8      20.7616
      21177.3      20.7259
      21189.9      20.6907
      21202.4      20.6526
      21215.0      20.6206
      21227.5      20.5865
      21240.1      20.5530
      21252.6      20.5156
      21265.2      20.4823
      21277.7      20.4480
      21290.3      20.4131
      21302.8      20.3814
      21315.4      20.3438
      21327.9      20.3107
      21340.5      20.2775
      21353.0      20.2402
      21365.6      20.2065
      21378.1      20.1726
      21390.6      20.1404
      21403.2      20.1038
      21415.7      20.0703
      21428.3      20.0390
      21440.8      20.0062
      21453.4      19.9716
      21465.9      19.9377
      21478.5      19.9041
      21491.0      19.8712
      21503.6      19.8408
      21516.1      19.8038
      21528.7      19.7726
      21541.2      19.7399
      21553.8      19.7068
      21566.3      19.6726
      21578.9      19.6383
      21591.4      19.6059
      21604.0      19.5745
      21616.5      19.5403
      21629.0      19.5102
      21641.6      19.4763
      21654.1      19.4451
      21666.7      19.4145
      21679.2      19.3812
      21691.8      19.3474
      21704.3      19.3173
      21716.9      19.2847
      21729.4      19.2523
      21742.0      19.2215
      21754.5      19.1882
      21767.1      19.1576
      21779.6      19.1242
      21792.2      19.0918
      21804.7      19.0617
      21817.3      19.0311
      21829.8      18.9992
      21842.4      18.9682
      21854.9      18.9363
      21867.4      18.9083
      21880.0      18.8746
      21892.5      18.8444
      21905.1      18.8133
      21917.6      18.7813
      21930.2      18.7529
      21942.7      18.7204
      21955.3      18.6899
      21967.8      18.6578
      21980.4      18.6289
      21992.9      18.5970
      22005.5      18.5663
      22018.0      18.5371
      22030.6      18.5058
      22043.1      18.4761
      22055.7      18.4469
      22068.2      18.4171
      22080.7      18.3878
      22093.3      18.3575
      22105.8      18.3285
      22118.4      18.2965
      22130.9      18.2688
      22143.5      18.2360
      22156.0      18.2087
      22168.6      18.1764
      22181.1      18.1497
      22193.7      18.1165
      22206.2      18.0889
      22218.8      18.0606
      22231.3      18.0298
      22243.9      18.0037
      22256.4      17.9731
      22269.0      17.9441
      22281.5      17.9140
      22294.1      17.8858
      22306.6      17.8573
      22319.1      17.8276
      22331.7      17.8012
      22344.2      17.7711
      22356.8      17.7413
      22369.3      17.7129
      22381.9      17.6830
      22394.4      17.6562
      22407.0      17.6259
      22419.5      17.5988
      22432.1      17.5721
      22444.6      17.5423
      22457.2      17.5175
      22469.7      17.4873
      22482.3      17.4583
      22494.8      17.4325
      22507.4      17.4029
      22519.9      17.3758
      22532.5      17.3490
      22545.0      17.3191
      22557.5      17.2921
      22570.1      17.2631
      22582.6      17.2380
      22595.2      17.2074
      22607.7      17.1815
      22620.3      17.1547
      22632.8      17.1287
      22645.4      17.0994
      22657.9      17.0717
      22670.5      17.0469
      22683.0      17.0201
      22695.6      16.9931
      22708.1      16.9646
      22720.7      16.9393
      22733.2      16.9097
      22745.8      16.8841
      22758.3      16.8588
      22770.8      16.8298
      22783.4      16.8039
      22795.9      16.7766
      22808.5      16.7513
      22821.0      16.7242
      22833.6      16.6969
      22846.1      16.6706
      22858.7      16.6459
      22871.2      16.6201
      22883.8      16.5931
      22896.3      16.5665
      22908.9      16.5415
      22921.4      16.5168
      22934.0      16.4885
      22946.5      16.4631
      22959.1      16.4358
      22971.6      16.4111
      22984.2      16.3846
      22996.7      16.3595
      23009.2      16.3332
      23021.8      16.3069
      23034.3      16.2821
      23046.9      16.2573
      23059.4      16.2312
      23072.0      16.2078
      23084.5      16.1818
      23097.1      16.1563
      23109.6      16.1307
      23122.2      16.1077
      23134.7      16.0798
      23147.3      16.0553
      23159.8      16.0319
      23172.4      16.0036
      23184.9      15.9809
      23197.5      15.9558
      23210.0      15.9293
      23222.5      15.9049
      23235.1      15.8825
      23247.6      15.8580
      23260.2      15.8315
      23272.7      15.8079
      23285.3      15.7837
      23297.8      15.7593
      23310.4      15.7343
      23322.9      15.7107
      23335.5      15.6871
      23348.0      15.6600
      23360.6      15.6367
      23373.1      15.6142
      23385.7      15.5876
      23398.2      15.5643
      23410.8      15.5408
      23423.3      15.5158
      23435.8      15.4939
      23448.4      15.4687
      23460.9      15.4450
      23473.5      15.4230
      23486.0      15.3971
      23498.6      15.3746
      23511.1      15.3509
      23523.7      15.3273
      23536.2      15.3051
      23548.8      15.2788
      23561.3      15.2557
      23573.9      15.2329
      23586.4      15.2092
      23599.0      15.1865
      23611.5      15.1622
      23624.1      15.1407
      23636.6      15.1169
      23649.2      15.0938
      23661.7      15.0703
      23674.2      15.0493
      23686.8      15.0257
      23699.3      15.0033
      23711.9      14.9793
      23724.4      14.9567
      23737.0      14.9333
      23749.5      14.9119
      23762.1      14.8887
      23774.6      14.8640
      23787.2      14.8443
      23799.7      14.8186
      23812.3      14.7983
      23824.8      14.7756
      23837.4      14.7538
      23849.9      14.7304
      23862.5      14.7088
      23875.0      14.6863
      23887.6      14.6662
      23900.1      14.6421
      23912.6      14.6208
      23925.2      14.5976
      23937.7      14.5755
      23950.3      14.5558
      23962.8      14.5310
      23975.4      14.5084
      23987.9      14.4875
      24000.5      14.4664
      24013.0      14.4451
      24025.6      14.4217
      24038.1      14.4019
      24050.7      14.3788
      24063.2      14.3577
      24075.8      14.3381
      24088.3      14.3139
      24100.9      14.2946
      24113.4      14.2724
      24126.0      14.2508
      24138.5      14.2290
      24151.0      14.2088
      24163.6      14.1866
      24176.1      14.1652
      24188.7      14.1438
      24201.2      14.1226
      24213.8      14.1022
      24226.3      14.0794
      24238.9      14.0604
      24251.4      14.0388
      24264.0      14.0193
      24276.5      13.9986
      24289.1      13.9766
      24301.6      13.9546
      24314.2      13.9370
      24326.7      13.9132
      24339.3      13.8947
      24351.8      13.8742
      24364.4      13.8512
      24376.9      13.8306
      24389.4      13.8115
      24402.0      13.7905
      24414.5      13.7696
      24427.1      13.7491
      24439.6      13.7298
      24452.2      13.7108
      24464.7      13.6896
      24477.3      13.6688
      24489.8      13.6489
      24502.4      13.6287
      24514.9      13.6102
      24527.5      13.5883
      24540.0      13.5686
      24552.6      13.5486
      24565.1      13.5280
      24577.7      13.5078
      24590.2      13.4895
      24602.7      13.4665
      24615.3      13.4488
      24627.8      13.4283
      24640.4      13.4102
      24652.9      13.3893
      24665.5      13.3708
      24678.0      13.3509
      24690.6      13.3320
      24703.1      13.3117
      24715.7      13.2922
      24728.2      13.2733
      24740.8      13.2533
      24753.3      13.2338
      24765.9      13.2143
      24778.4      13.1948
      24791.0      13.1752
      24803.5      13.1560
      24816.0      13.1369
      24828.6      13.1174
      24841.1      13.0999
      24853.7      13.0795
      24866.2      13.0621
      24878.8      13.0431
      24891.3      13.0234
      24903.9      13.0043
      24916.4      12.9859
      24929.0      12.9657
      24941.5      12.9491
      24954.1      12.9276
      24966.6      12.9110
      24979.2      12.8918
      24991.7      12.8722
      25004.3      12.8531
      25016.8      12.8336
      25029.4      12.8181
      25041.9      12.7989
      25054.4      12.7784
      25067.0      12.7628
      25079.5      12.7430
      25092.1      12.7260
      25104.6      12.7060
      25117.2      12.6891
      25129.7      12.6691
      25142.3      12.6529
      25154.8      12.6324
      25167.4      12.6150
      25179.9      12.5966
      25192.5      12.5790
      25205.0      12.5606
      25217.6      12.5421
      25230.1      12.5252
      25242.7      12.5075
      25255.2      12.4890
      25267.8      12.4703
      25280.3      12.4541
      25292.8      12.4358
      25305.4      12.4173
      25317.9      12.3998
      25330.5      12.3832
      25343.0      12.3653
      25355.6      12.3461
      25368.1      12.3279
      25380.7      12.3121
      25393.2      12.2937
      25405.8      12.2747
      25418.3      12.2597
      25430.9      12.2410
      25443.4      12.2242
      25456.0      12.2069
      25468.5      12.1881
      25481.1      12.1723
      25493.6      12.1552
      25506.1      12.1380
      25518.7      12.1212
      25531.2      12.1020
      25543.8      12.0860
      25556.3      12.0695
      25568.9      12.0504
      25581.4      12.0344
      25594.0      12.0216
