# spectrum  Type     U-V    B-V    V-R    V-I    V-J    V-K
# ---------------------------------------------------------
#  bpgs_3  O6      -1.34  -0.31  -0.14  -0.30  -0.78  -0.93
#
# lambda (Angstroms)  flux (phot/lambda)
#----------------------------------------------------------
PHOTLAM
      512.023      1887.06
      524.570      2145.25
      537.117      2129.35
      549.664      2260.17
      562.212      2437.17
      574.759      2500.71
      587.306      2545.37
      599.853      2662.77
      612.401      2791.05
      624.948      2920.48
      637.495      3047.63
      650.042      3137.63
      662.590      3214.76
      675.137      3272.41
      687.684      3293.61
      700.231      3315.09
      712.779      3443.62
      725.326      3640.38
      737.873      3797.20
      750.420      3816.20
      762.968      3823.50
      775.515      3859.99
      788.062      3933.20
      800.609      4006.58
      813.157      4039.32
      825.704      3973.26
      838.251      3902.81
      850.798      3863.23
      863.346      3968.63
      875.893      4092.53
      888.440      4275.12
      900.987      5068.32
      913.535      6023.55
      926.082      8393.60
      938.629      12057.5
      951.177      13709.9
      963.724      14520.2
      976.271      14123.3
      988.818      13749.0
      1001.37      13835.2
      1013.91      13969.3
      1026.46      14131.4
      1039.01      14176.6
      1051.55      13825.2
      1064.10      13576.9
      1076.65      13764.1
      1089.20      13855.6
      1101.74      13539.6
      1114.29      13195.3
      1126.84      12782.0
      1139.39      12366.2
      1151.93      12390.3
      1164.48      12245.6
      1177.03      11664.5
      1189.57      11079.3
      1202.12      10009.3
      1214.67      7395.48
      1227.22      8732.64
      1239.76      12736.4
      1252.31      14217.7
      1264.86      15291.8
      1277.41      16395.0
      1289.95      16804.1
      1302.50      16814.9
      1315.05      16381.7
      1327.59      15825.7
      1340.14      15347.5
      1352.69      15681.8
      1365.24      15799.0
      1377.78      15400.1
      1390.33      14441.3
      1402.88      13765.8
      1415.42      14291.3
      1427.97      14415.1
      1440.52      14254.6
      1453.07      14084.3
      1465.61      14200.8
      1478.16      14644.9
      1490.71      14802.3
      1503.26      14963.6
      1515.80      15294.4
      1528.35      13983.8
      1540.90      12062.5
      1553.44      11468.8
      1565.99      11619.1
      1578.54      12316.9
      1591.09      12157.0
      1603.63      11462.6
      1616.18      10135.9
      1628.73      9963.18
      1641.28      10361.6
      1653.82      10724.8
      1666.37      11001.2
      1678.92      11162.2
      1691.46      11022.9
      1704.01      10794.0
      1716.56      10540.1
      1729.11      10636.6
      1741.65      10867.3
      1754.20      11018.0
      1766.75      11030.2
      1779.30      10922.4
      1791.84      10764.5
      1804.39      10594.4
      1816.94      10420.5
      1829.48      10243.0
      1842.03      10074.4
      1854.58      9939.59
      1867.13      9822.88
      1879.67      9692.37
      1892.22      9390.51
      1904.77      9166.89
      1917.32      9097.69
      1929.86      8734.59
      1942.41      8364.42
      1954.96      8290.73
      1967.50      8106.49
      1980.05      7856.92
      1992.60      7754.72
      2005.15      7672.43
      2017.69      7575.94
      2030.24      7370.80
      2042.79      7128.97
      2055.33      6888.96
      2067.88      6726.62
      2080.43      6622.33
      2092.98      6570.42
      2105.52      6511.92
      2118.07      6428.68
      2130.62      6261.04
      2143.17      6128.08
      2155.71      6142.28
      2168.26      6096.66
      2180.81      6016.12
      2193.35      5946.27
      2205.90      5911.00
      2218.45      5913.39
      2231.00      5910.49
      2243.54      5880.51
      2256.09      5794.15
      2268.64      5698.81
      2281.19      5607.52
      2293.73      5548.69
      2306.28      5665.01
      2318.83      5927.46
      2331.37      5947.19
      2343.92      5920.76
      2356.47      5913.20
      2369.02      5746.27
      2381.56      5590.71
      2394.11      5758.19
      2406.66      5812.18
      2419.20      5752.12
      2431.75      5820.75
      2444.30      5884.87
      2456.85      5889.83
      2469.39      5858.40
      2481.94      5788.64
      2494.49      5639.42
      2507.04      5557.38
      2519.58      5538.03
      2532.13      5544.41
      2544.68      5548.18
      2557.22      5534.90
      2569.77      5431.11
      2582.32      5308.30
      2594.87      5234.88
      2607.41      5251.63
      2619.96      5307.58
      2632.51      5222.79
      2645.06      5117.21
      2657.60      5022.64
      2670.15      5016.08
      2682.70      5032.77
      2695.24      5029.61
      2707.79      4980.32
      2720.34      4906.67
      2732.89      4860.39
      2745.43      4838.45
      2757.98      4837.28
      2770.53      4767.69
      2783.07      4684.28
      2795.62      4620.86
      2808.17      4622.90
      2820.72      4643.10
      2833.26      4569.89
      2845.81      4551.03
      2858.36      4597.42
      2870.91      4517.58
      2883.45      4422.14
      2896.00      4371.76
      2908.55      4341.52
      2921.09      4307.02
      2933.64      4213.44
      2946.19      4126.83
      2958.74      4060.95
      2971.28      4053.62
      2983.83      4044.20
      2996.38      4001.51
      3008.93      3957.35
      3021.47      3912.60
      3034.02      3867.44
      3046.57      3864.72
      3059.11      3897.48
      3071.66      3899.48
      3084.21      3890.95
      3096.76      3874.84
      3109.30      3844.15
      3121.85      3820.12
      3134.40      3840.91
      3146.95      3848.90
      3159.49      3836.03
      3172.04      3775.03
      3184.59      3724.16
      3197.13      3708.01
      3209.68      3730.57
      3222.23      3742.32
      3234.78      3674.66
      3247.32      3636.73
      3259.87      3629.53
      3272.42      3580.89
      3284.97      3449.21
      3297.51      3476.22
      3310.06      3394.46
      3322.61      3465.10
      3335.15      3482.25
      3347.70      3454.66
      3360.25      3390.10
      3372.80      3384.26
      3385.34      3333.07
      3397.89      3269.61
      3410.44      3198.43
      3422.98      3188.78
      3435.53      3138.93
      3448.08      3173.95
      3460.63      3174.08
      3473.17      3140.21
      3485.72      3114.86
      3498.27      3173.26
      3510.82      3161.73
      3523.36      3109.58
      3535.91      3089.71
      3548.46      3049.91
      3561.00      2978.47
      3573.55      2903.99
      3586.10      2907.89
      3598.65      2858.63
      3611.19      2777.73
      3623.74      2737.45
      3636.29      2727.21
      3648.84      2742.70
      3661.38      2714.48
      3673.93      2653.64
      3686.48      2602.20
      3699.02      2574.44
      3711.57      2535.57
      3724.12      2549.51
      3736.67      2552.05
      3749.21      2510.92
      3761.76      2472.10
      3774.31      2536.05
      3786.86      2563.17
      3799.40      2542.71
      3811.95      2616.44
      3824.50      2557.77
      3837.04      2443.35
      3849.59      2502.43
      3862.14      2521.65
      3874.69      2432.27
      3887.23      2278.70
      3899.78      2318.70
      3912.33      2407.93
      3924.87      2345.80
      3937.42      2339.09
      3949.97      2342.29
      3962.52      2233.93
      3975.06      2223.39
      3987.61      2377.51
      4000.16      2409.09
      4012.71      2377.36
      4025.25      2330.23
      4037.80      2377.56
      4050.35      2387.03
      4062.89      2370.08
      4075.44      2324.18
      4087.99      2256.94
      4100.54      2157.86
      4113.08      2251.00
      4125.63      2363.24
      4138.18      2333.22
      4150.73      2286.59
      4163.27      2245.38
      4175.82      2219.46
      4188.37      2159.41
      4200.91      2142.66
      4213.46      2146.63
      4226.01      2159.33
      4238.56      2141.33
      4251.10      2111.47
      4263.65      2098.00
      4276.20      2086.76
      4288.74      2085.40
      4301.29      2055.15
      4313.84      2016.86
      4326.39      1915.40
      4338.93      1824.49
      4351.48      1925.10
      4364.03      1986.70
      4376.58      1981.99
      4389.12      1959.21
      4401.67      1946.72
      4414.22      1905.01
      4426.76      1865.36
      4439.31      1862.50
      4451.86      1885.18
      4464.41      1830.10
      4476.95      1773.77
      4489.50      1766.64
      4502.05      1765.66
      4514.60      1747.93
      4527.14      1700.23
      4539.69      1657.04
      4552.24      1681.50
      4564.78      1661.46
      4577.33      1644.94
      4589.88      1635.35
      4602.43      1639.01
      4614.97      1663.63
      4627.52      1653.76
      4640.07      1628.38
      4652.62      1605.81
      4665.16      1601.52
      4677.71      1562.56
      4690.26      1555.89
      4702.81      1598.79
      4715.35      1590.85
      4727.90      1587.32
      4740.45      1585.70
      4752.99      1578.51
      4765.54      1579.18
      4778.09      1566.16
      4790.64      1535.13
      4803.18      1517.50
      4815.73      1500.24
      4828.28      1471.33
      4840.82      1429.49
      4853.37      1318.09
      4865.92      1301.19
      4878.47      1368.82
      4891.01      1381.29
      4903.56      1380.44
      4916.11      1368.76
      4928.66      1366.34
      4941.20      1353.78
      4953.75      1336.33
      4966.30      1324.93
      4978.84      1310.75
      4991.39      1308.21
      5003.94      1295.23
      5016.49      1279.31
      5029.03      1280.05
      5041.58      1263.51
      5054.13      1255.02
      5066.67      1239.94
      5079.22      1232.55
      5091.77      1227.77
      5104.32      1203.14
      5116.86      1201.02
      5129.41      1198.16
      5141.96      1189.87
      5154.51      1184.33
      5167.05      1181.26
      5179.60      1174.23
      5192.15      1159.04
      5204.69      1150.81
      5217.24      1138.05
      5229.79      1127.36
      5242.34      1127.38
      5254.88      1132.60
      5267.43      1121.58
      5279.98      1110.78
      5292.53      1101.70
      5305.07      1092.19
      5317.62      1084.01
      5330.17      1080.79
      5342.71      1074.91
      5355.26      1063.62
      5367.81      1057.20
      5380.36      1054.66
      5392.90      1050.50
      5405.45      1022.24
      5418.00      1007.73
      5430.55      1017.48
      5443.09      1014.44
      5455.64      1006.46
      5468.19      997.605
      5480.73      987.323
      5493.28      979.639
      5505.83      974.322
      5518.38      977.147
      5530.92      971.033
      5543.47      970.583
      5556.02      965.501
      5568.57      967.221
      5581.11      966.880
      5593.66      952.124
      5606.21      939.598
      5618.75      937.344
      5631.30      935.348
      5643.85      928.689
      5656.40      921.589
      5668.94      914.611
      5681.49      907.710
      5694.04      900.931
      5706.58      894.131
      5719.13      887.399
      5731.68      880.763
      5744.23      871.723
      5756.77      858.440
      5769.32      849.456
      5781.87      843.066
      5794.41      838.991
      5806.96      836.968
      5819.51      836.103
      5832.06      832.240
      5844.60      824.133
      5857.15      810.327
      5869.70      799.257
      5882.25      791.857
      5894.79      792.251
      5907.34      792.940
      5919.89      792.920
      5932.44      790.020
      5944.98      786.203
      5957.53      781.515
      5970.08      772.935
      5982.62      764.506
      5995.17      760.281
      6007.72      754.931
      6020.27      749.770
      6032.81      750.352
      6045.36      749.438
      6057.91      745.538
      6070.45      743.548
      6083.00      742.534
      6095.55      742.445
      6108.10      742.995
      6120.64      740.984
      6133.19      724.871
      6145.74      713.419
      6158.29      709.363
      6170.83      703.300
      6183.38      697.662
      6195.93      694.587
      6208.47      696.890
      6221.02      701.486
      6233.57      703.579
      6246.12      700.782
      6258.66      693.129
      6271.21      685.857
      6283.76      679.795
      6296.30      675.976
      6308.85      672.891
      6321.40      671.002
      6333.95      672.751
      6346.49      672.166
      6359.04      669.264
      6371.59      667.985
      6384.14      664.663
      6396.68      657.296
      6409.23      653.044
      6421.78      649.800
      6434.32      644.897
      6446.87      639.287
      6459.42      633.147
      6471.97      626.423
      6484.51      621.274
      6497.06      618.897
      6509.61      616.258
      6522.16      608.691
      6534.70      586.628
      6547.25      573.934
      6559.80      572.651
      6572.34      590.924
      6584.89      605.500
      6597.44      608.679
      6609.99      606.646
      6622.53      601.136
      6635.08      591.105
      6647.63      577.244
      6660.18      562.869
      6672.72      558.907
      6685.27      559.851
      6697.82      564.204
      6710.36      560.237
      6722.91      555.102
      6735.46      554.151
      6748.01      556.683
      6760.55      559.100
      6773.10      551.198
      6785.65      541.795
      6798.20      533.503
      6810.74      535.542
      6823.29      540.134
      6835.84      542.853
      6848.38      529.349
      6860.93      510.562
      6873.48      507.937
      6886.03      510.450
      6898.57      515.756
      6911.12      517.039
      6923.67      517.775
      6936.21      519.452
      6948.76      520.107
      6961.31      519.090
      6973.86      513.795
      6986.40      510.698
      6998.95      509.557
      7011.50      503.783
      7024.05      498.634
      7036.59      496.665
      7049.14      491.523
      7061.69      486.437
      7074.23      486.577
      7086.78      485.332
      7099.33      482.854
      7111.88      483.237
      7124.42      480.523
      7136.97      471.859
      7149.52      466.420
      7162.07      463.406
      7174.61      463.830
      7187.16      463.790
      7199.71      462.470
      7212.25      456.897
      7224.80      451.763
      7237.35      448.476
      7249.90      445.546
      7262.44      443.277
      7274.99      442.416
      7287.54      443.628
      7300.09      445.809
      7312.63      445.787
      7325.18      442.323
      7337.73      434.788
      7350.27      427.964
      7362.82      422.975
      7375.37      422.012
      7387.92      419.838
      7400.46      416.554
      7413.01      412.142
      7425.56      408.177
      7438.11      405.263
      7450.65      404.953
      7463.20      405.852
      7475.75      407.452
      7488.29      405.117
      7500.84      401.796
      7513.39      404.340
      7525.94      406.236
      7538.48      406.790
      7551.03      409.348
      7563.58      398.531
      7576.12      359.318
      7588.67      331.330
      7601.22      324.233
      7613.77      373.261
      7626.31      400.886
      7638.86      399.602
      7651.41      391.002
      7663.96      380.190
      7676.50      369.180
      7689.05      372.675
      7701.60      381.334
      7714.15      384.106
      7726.69      385.371
      7739.24      385.091
      7751.79      379.022
      7764.33      375.642
      7776.88      378.952
      7789.43      380.653
      7801.98      379.986
      7814.52      374.352
      7827.07      373.100
      7839.62      374.803
      7852.16      370.850
      7864.71      366.384
      7877.26      362.825
      7889.81      358.540
      7902.35      354.827
      7914.90      353.629
      7927.45      352.204
      7939.99      350.519
      7952.54      348.944
      7965.09      347.188
      7977.64      345.480
      7990.18      348.005
      8002.73      350.059
      8015.28      347.232
      8027.83      347.763
      8040.37      350.053
      8052.92      348.837
      8065.47      346.153
      8078.02      342.062
      8090.56      335.250
      8103.11      330.251
      8115.66      331.623
      8128.20      335.212
      8140.75      336.943
      8153.30      325.672
      8165.85      322.230
      8178.39      328.813
      8190.94      328.511
      8203.49      324.279
      8216.03      316.252
      8228.58      315.378
      8241.13      317.532
      8253.68      315.958
      8266.22      312.475
      8278.77      308.133
      8291.32      308.499
      8303.86      309.082
      8316.41      307.556
      8328.96      302.466
      8341.51      297.070
      8354.05      296.542
      8366.60      295.545
      8379.15      294.398
      8391.70      298.512
      8404.24      302.697
      8416.79      304.458
      8429.34      298.339
      8441.88      291.117
      8454.43      291.426
      8466.98      289.280
      8479.53      286.105
      8492.07      293.065
      8504.62      296.987
      8517.17      293.143
      8529.72      291.829
      8542.26      290.834
      8554.81      287.618
      8567.36      283.769
      8579.90      278.958
      8592.45      270.475
      8605.00      268.577
      8617.55      276.246
      8630.09      276.315
      8642.64      272.745
      8655.19      267.066
      8667.73      266.007
      8680.28      268.138
      8692.83      270.466
      8705.38      270.807
      8717.92      268.957
      8730.47      270.790
      8743.02      271.761
      8755.57      267.777
      8768.11      260.709
      8780.66      254.755
      8793.21      261.542
      8805.76      264.942
      8818.30      261.568
      8830.85      252.354
      8843.40      246.723
      8855.94      252.201
      8868.49      253.770
      8881.04      252.398
      8893.59      249.070
      8906.13      249.940
      8918.68      254.396
      8931.23      249.584
      8943.78      246.727
      8956.32      251.856
      8968.87      242.946
      8981.42      230.855
      8993.96      233.642
      9006.51      238.224
      9019.06      242.405
      9031.61      243.270
      9044.15      245.643
      9056.70      251.416
      9069.25      244.415
      9081.80      235.230
      9094.34      238.187
      9106.89      240.992
      9119.44      242.587
      9131.98      244.253
      9144.53      243.619
      9157.08      239.125
      9169.63      232.039
      9182.17      226.938
      9194.72      230.563
      9207.27      229.113
      9219.81      223.572
      9232.36      220.099
      9244.91      218.755
      9257.46      220.476
      9270.00      230.137
      9282.55      236.007
      9295.10      224.107
      9307.65      217.908
      9320.19      215.680
      9332.74      208.128
      9345.29      206.551
      9357.83      214.296
      9370.38      226.191
      9382.93      234.743
      9395.48      231.669
      9408.02      215.155
      9420.57      196.308
      9433.12      202.535
      9445.66      212.785
      9458.21      221.710
      9470.76      217.549
      9483.31      213.044
      9495.85      216.126
      9508.40      211.105
      9520.95      202.408
      9533.50      198.846
      9546.04      201.375
      9558.59      209.144
      9571.14      212.006
      9583.69      213.427
      9596.23      214.431
      9608.78      210.379
      9621.33      205.894
      9633.87      209.354
      9646.42      211.295
      9658.97      209.786
      9671.52      200.920
      9684.06      193.773
      9696.61      193.244
      9709.16      196.912
      9721.71      201.060
      9734.25      200.680
      9746.80      201.356
      9759.35      202.014
      9771.89      193.339
      9784.44      188.894
      9796.99      194.417
      9809.53      194.314
      9822.08      192.855
      9834.63      194.781
      9847.18      193.874
      9859.72      190.927
      9872.27      190.799
      9884.82      189.405
      9897.37      185.614
      9909.91      185.391
      9922.46      186.074
      9935.01      185.425
      9947.55      184.359
      9960.10      183.928
      9972.65      187.960
      9985.20      190.030
      9997.74      188.391
      10010.3      186.255
      10022.8      180.688
      10035.4      167.513
      10047.9      164.457
      10060.5      167.991
      10073.0      169.770
      10085.6      167.908
      10098.1      162.593
      10110.7      162.756
      10123.2      165.022
      10135.8      167.992
      10148.3      169.258
      10160.9      170.139
      10173.4      173.464
      10186.0      174.131
      10198.5      171.252
      10211.0      166.453
      10223.6      163.127
      10236.1      163.557
      10248.7      157.984
      10261.2      151.940
      10273.8      156.194
      10286.3      156.870
      10298.9      153.040
      10311.4      152.075
      10324.0      152.716
      10336.5      154.531
      10349.1      151.574
      10361.6      148.269
      10374.2      151.576
      10386.7      150.164
      10399.3      144.555
      10411.8      144.429
      10424.4      144.504
      10436.9      143.092
      10449.4      146.545
      10462.0      151.780
      10474.5      155.676
      10487.1      150.615
      10499.6      140.410
      10512.2      141.163
      10524.7      142.745
      10537.3      142.451
      10549.8      146.467
      10562.4      148.646
      10574.9      141.183
      10587.5      138.425
      10600.0      139.501
      10612.6      139.198
      10625.1      138.625
      10637.7      138.074
      10650.2      137.511
      10662.7      136.937
      10675.3      136.382
      10687.8      135.807
      10700.4      135.252
      10712.9      134.675
      10725.5      134.128
      10738.0      133.550
      10750.6      132.986
      10763.1      132.425
      10775.7      131.862
      10788.2      131.305
      10800.8      130.746
      10813.3      130.292
      10825.9      129.831
      10838.4      129.381
      10851.0      128.928
      10863.5      128.481
      10876.1      128.020
      10888.6      127.575
      10901.1      127.121
      10913.7      126.673
      10926.2      126.214
      10938.8      125.767
      10951.3      125.306
      10963.9      124.859
      10976.4      124.406
      10989.0      123.955
      11001.5      123.524
      11014.1      123.139
      11026.6      122.778
      11039.2      122.409
      11051.7      122.032
      11064.3      121.676
      11076.8      121.296
      11089.4      120.934
      11101.9      120.568
      11114.4      120.190
      11127.0      119.830
      11139.5      119.455
      11152.1      119.093
      11164.6      118.723
      11177.2      118.348
      11189.7      117.989
      11202.3      117.635
      11214.8      117.315
      11227.4      117.014
      11239.9      116.703
      11252.5      116.396
      11265.0      116.094
      11277.6      115.786
      11290.1      115.467
      11302.7      115.172
      11315.2      114.860
      11327.8      114.552
      11340.3      114.241
      11352.8      113.941
      11365.4      113.633
      11377.9      113.322
      11390.5      113.014
      11403.0      112.718
      11415.6      112.450
      11428.1      112.196
      11440.7      111.923
      11453.2      111.662
      11465.8      111.395
      11478.3      111.126
      11490.9      110.865
      11503.4      110.598
      11516.0      110.342
      11528.5      110.068
      11541.1      109.809
      11553.6      109.537
      11566.1      109.281
      11578.7      109.014
      11591.2      108.746
      11603.8      108.498
      11616.3      108.251
      11628.9      108.011
      11641.4      107.780
      11654.0      107.535
      11666.5      107.304
      11679.1      107.061
      11691.6      106.822
      11704.2      106.581
      11716.7      106.340
      11729.3      106.106
      11741.8      105.870
      11754.4      105.628
      11766.9      105.391
      11779.5      105.150
      11792.0      104.917
      11804.5      104.676
      11817.1      104.461
      11829.6      104.227
      11842.2      104.004
      11854.7      103.774
      11867.3      103.556
      11879.8      103.331
      11892.4      103.099
      11904.9      102.878
      11917.5      102.649
      11930.0      102.426
      11942.6      102.204
      11955.1      101.974
      11967.7      101.751
      11980.2      101.523
      11992.8      101.298
      12005.3      101.071
      12017.9      100.856
      12030.4      100.623
      12042.9      100.402
      12055.5      100.177
      12068.0      99.9561
      12080.6      99.7296
      12093.1      99.5048
      12105.7      99.2812
      12118.2      99.0528
      12130.8      98.8358
      12143.3      98.6088
      12155.9      98.3818
      12168.4      98.1654
      12181.0      97.9333
      12193.5      97.7168
      12206.1      97.4806
      12218.6      97.2467
      12231.2      97.0160
      12243.7      96.7835
      12256.2      96.5493
      12268.8      96.3146
      12281.3      96.0802
      12293.9      95.8476
      12306.4      95.6122
      12319.0      95.3813
      12331.5      95.1442
      12344.1      94.9124
      12356.6      94.6765
      12369.2      94.4471
      12381.7      94.2100
      12394.3      93.9737
      12406.8      93.7306
      12419.4      93.4623
      12431.9      93.1975
      12444.5      92.9371
      12457.0      92.6730
      12469.6      92.4097
      12482.1      92.1476
      12494.6      91.8816
      12507.2      91.6177
      12519.7      91.3573
      12532.3      91.0951
      12544.8      90.8265
      12557.4      90.5642
      12569.9      90.3031
      12582.5      90.0382
      12595.0      89.7820
      12607.6      89.5204
      12620.1      89.2921
      12632.7      89.0424
      12645.2      88.8045
      12657.8      88.5708
      12670.3      88.3249
      12682.9      88.0813
      12695.4      87.8489
      12708.0      87.6058
      12720.5      87.3625
      12733.0      87.1266
      12745.6      86.8886
      12758.1      86.6472
      12770.7      86.4016
      12783.2      86.1676
      12795.8      85.9256
      12808.3      85.6971
      12820.9      85.4632
      12833.4      85.2428
      12846.0      85.0136
      12858.5      84.7877
      12871.1      84.5603
      12883.6      84.3371
      12896.2      84.1071
      12908.7      83.8747
      12921.3      83.6561
      12933.8      83.4245
      12946.3      83.2046
      12958.9      82.9708
      12971.4      82.7485
      12984.0      82.5180
      12996.5      82.2961
      13009.1      82.0735
      13021.6      81.8621
      13034.2      81.6489
      13046.7      81.4361
      13059.3      81.2170
      13071.8      81.0063
      13084.4      80.7901
      13096.9      80.5789
      13109.5      80.3639
      13122.0      80.1500
      13134.6      79.9337
      13147.1      79.7253
      13159.7      79.5050
      13172.2      79.2949
      13184.7      79.0808
      13197.3      78.8682
      13209.8      78.6571
      13222.4      78.4579
      13234.9      78.2583
      13247.5      78.0586
      13260.0      77.8505
      13272.6      77.6489
      13285.1      77.4471
      13297.7      77.2461
      13310.2      77.0432
      13322.8      76.8412
      13335.3      76.6389
      13347.9      76.4360
      13360.4      76.2335
      13373.0      76.0337
      13385.5      75.8277
      13398.0      75.6304
      13410.6      75.4366
      13423.1      75.2401
      13435.7      75.0504
      13448.2      74.8587
      13460.8      74.6697
      13473.3      74.4734
      13485.9      74.2842
      13498.4      74.0892
      13511.0      73.9003
      13523.5      73.7086
      13536.1      73.5197
      13548.6      73.3244
      13561.2      73.1354
      13573.7      72.9400
      13586.3      72.7530
      13598.8      72.5574
      13611.4      72.3743
      13623.9      72.1951
      13636.4      72.0116
      13649.0      71.8313
      13661.5      71.6491
      13674.1      71.4706
      13686.6      71.2836
      13699.2      71.1049
      13711.7      70.9243
      13724.3      70.7380
      13736.8      70.5602
      13749.4      70.3814
      13761.9      70.1972
      13774.5      70.0138
      13787.0      69.8386
      13799.6      69.6513
      13812.1      69.4810
      13824.7      69.3096
      13837.2      69.1337
      13849.7      68.9700
      13862.3      68.7900
      13874.8      68.6234
      13887.4      68.4509
      13899.9      68.2773
      13912.5      68.1055
      13925.0      67.9400
      13937.6      67.7635
      13950.1      67.5918
      13962.7      67.4190
      13975.2      67.2506
      13987.8      67.0750
      14000.3      66.9068
      14012.9      66.7449
      14025.4      66.5784
      14038.0      66.4144
      14050.5      66.2524
      14063.1      66.0872
      14075.6      65.9296
      14088.1      65.7622
      14100.7      65.5997
      14113.2      65.4344
      14125.8      65.2735
      14138.3      65.1129
      14150.9      64.9452
      14163.4      64.7882
      14176.0      64.6171
      14188.5      64.4587
      14201.1      64.2959
      14213.6      64.1378
      14226.2      63.9895
      14238.7      63.8317
      14251.3      63.6728
      14263.8      63.5223
      14276.4      63.3706
      14288.9      63.2122
      14301.5      63.0550
      14314.0      62.9059
      14326.5      62.7492
      14339.1      62.5930
      14351.6      62.4409
      14364.2      62.2858
      14376.7      62.1288
      14389.3      61.9788
      14401.8      61.8214
      14414.4      61.6760
      14426.9      61.5264
      14439.5      61.3824
      14452.0      61.2358
      14464.6      61.0850
      14477.1      60.9407
      14489.7      60.7953
      14502.2      60.6449
      14514.8      60.4990
      14527.3      60.3552
      14539.8      60.2036
      14552.4      60.0597
      14564.9      59.9093
      14577.5      59.7626
      14590.0      59.6183
      14602.6      59.4718
      14615.1      59.3338
      14627.7      59.1915
      14640.2      59.0518
      14652.8      58.9146
      14665.3      58.7721
      14677.9      58.6338
      14690.4      58.4918
      14703.0      58.3545
      14715.5      58.2172
      14728.1      58.0759
      14740.6      57.9369
      14753.2      57.7944
      14765.7      57.6587
      14778.2      57.5159
      14790.8      57.3761
      14803.3      57.2420
      14815.9      57.1047
      14828.4      56.9738
      14841.0      56.8427
      14853.5      56.7058
      14866.1      56.5751
      14878.6      56.4402
      14891.2      56.3117
      14903.7      56.1767
      14916.3      56.0429
      14928.8      55.9105
      14941.4      55.7764
      14953.9      55.6472
      14966.5      55.5143
      14979.0      55.3772
      14991.6      55.2481
      15004.1      55.1144
      15016.6      54.9894
      15029.2      54.8630
      15041.7      54.7388
      15054.3      54.6082
      15066.8      54.4819
      15079.4      54.3607
      15091.9      54.2318
      15104.5      54.1033
      15117.0      53.9787
      15129.6      53.8517
      15142.1      53.7275
      15154.7      53.5966
      15167.2      53.4745
      15179.8      53.3468
      15192.3      53.2211
      15204.9      53.0975
      15217.4      52.9747
      15229.9      52.8565
      15242.5      52.7379
      15255.0      52.6162
      15267.6      52.4964
      15280.1      52.3738
      15292.7      52.2593
      15305.2      52.1327
      15317.8      52.0192
      15330.3      51.8940
      15342.9      51.7773
      15355.4      51.6556
      15368.0      51.5327
      15380.5      51.4183
      15393.1      51.2940
      15405.6      51.1798
      15418.2      51.0613
      15430.7      50.9488
      15443.3      50.8335
      15455.8      50.7194
      15468.3      50.6058
      15480.9      50.4897
      15493.4      50.3795
      15506.0      50.2628
      15518.5      50.1445
      15531.1      50.0344
      15543.6      49.9193
      15556.2      49.8030
      15568.7      49.6898
      15581.3      49.5741
      15593.8      49.4605
      15606.4      49.3494
      15618.9      49.2388
      15631.5      49.1311
      15644.0      49.0211
      15656.6      48.9119
      15669.1      48.8037
      15681.7      48.6927
      15694.2      48.5845
      15706.7      48.4737
      15719.3      48.3664
      15731.8      48.2570
      15744.4      48.1467
      15756.9      48.0390
      15769.5      47.9267
      15782.0      47.8211
      15794.6      47.7120
      15807.1      47.6036
      15819.7      47.4990
      15832.2      47.3973
      15844.8      47.2898
      15857.3      47.1888
      15869.9      47.0824
      15882.4      46.9793
      15895.0      46.8733
      15907.5      46.7720
      15920.0      46.6664
      15932.6      46.5639
      15945.1      46.4561
      15957.7      46.3541
      15970.2      46.2515
      15982.8      46.1458
      15995.3      46.0427
      16007.9      45.9407
      16020.4      45.8384
      16033.0      45.7433
      16045.5      45.6417
      16058.1      45.5447
      16070.6      45.4437
      16083.2      45.3443
      16095.7      45.2439
      16108.3      45.1470
      16120.8      45.0452
      16133.3      44.9487
      16145.9      44.8491
      16158.4      44.7490
      16171.0      44.6482
      16183.5      44.5507
      16196.1      44.4481
      16208.6      44.3550
      16221.2      44.2598
      16233.7      44.1641
      16246.3      44.0702
      16258.8      43.9751
      16271.4      43.8786
      16283.9      43.7844
      16296.5      43.6894
      16309.0      43.5965
      16321.6      43.4991
      16334.1      43.4048
      16346.7      43.3102
      16359.2      43.2152
      16371.7      43.1189
      16384.3      43.0234
      16396.8      42.9335
      16409.4      42.8402
      16421.9      42.7451
      16434.5      42.6546
      16447.0      42.5685
      16459.6      42.4757
      16472.1      42.3881
      16484.7      42.2943
      16497.2      42.2007
      16509.8      42.1163
      16522.3      42.0184
      16534.9      41.9339
      16547.4      41.8412
      16560.0      41.7519
      16572.5      41.6553
      16585.1      41.5755
      16597.6      41.4752
      16610.1      41.3941
      16622.7      41.3051
      16635.2      41.2156
      16647.8      41.1318
      16660.3      41.0440
      16672.9      40.9617
      16685.4      40.8701
      16698.0      40.7875
      16710.5      40.7006
      16723.1      40.6134
      16735.6      40.5266
      16748.2      40.4364
      16760.7      40.3551
      16773.3      40.2687
      16785.8      40.1778
      16798.4      40.0921
      16810.9      40.0129
      16823.4      39.9288
      16836.0      39.8465
      16848.5      39.7621
      16861.1      39.6761
      16873.6      39.6006
      16886.2      39.5121
      16898.7      39.4307
      16911.3      39.3456
      16923.8      39.2678
      16936.4      39.1806
      16948.9      39.0988
      16961.5      39.0214
      16974.0      38.9299
      16986.6      38.8512
      16999.1      38.7662
      17011.7      38.6894
      17024.2      38.6123
      17036.8      38.5290
      17049.3      38.4492
      17061.8      38.3750
      17074.4      38.2900
      17086.9      38.2158
      17099.5      38.1374
      17112.0      38.0554
      17124.6      37.9738
      17137.1      37.8966
      17149.7      37.8189
      17162.2      37.7404
      17174.8      37.6590
      17187.3      37.5807
      17199.9      37.5022
      17212.4      37.4237
      17225.0      37.3502
      17237.5      37.2711
      17250.1      37.1977
      17262.6      37.1255
      17275.1      37.0435
      17287.7      36.9725
      17300.2      36.8903
      17312.8      36.8196
      17325.3      36.7435
      17337.9      36.6695
      17350.4      36.5854
      17363.0      36.5155
      17375.5      36.4393
      17388.1      36.3659
      17400.6      36.2857
      17413.2      36.2158
      17425.7      36.1441
      17438.3      36.0677
      17450.8      36.0000
      17463.4      35.9261
      17475.9      35.8528
      17488.5      35.7822
      17501.0      35.7048
      17513.5      35.6381
      17526.1      35.5637
      17538.6      35.4913
      17551.2      35.4177
      17563.7      35.3471
      17576.3      35.2772
      17588.8      35.2017
      17601.4      35.1280
      17613.9      35.0601
      17626.5      34.9904
      17639.0      34.9226
      17651.6      34.8487
      17664.1      34.7811
      17676.7      34.7105
      17689.2      34.6450
      17701.8      34.5697
      17714.3      34.5037
      17726.9      34.4345
      17739.4      34.3612
      17751.9      34.2934
      17764.5      34.2243
      17777.0      34.1554
      17789.6      34.0818
      17802.1      34.0146
      17814.7      33.9482
      17827.2      33.8813
      17839.8      33.8173
      17852.3      33.7509
      17864.9      33.6828
      17877.4      33.6117
      17890.0      33.5519
      17902.5      33.4811
      17915.1      33.4182
      17927.6      33.3477
      17940.2      33.2823
      17952.7      33.2168
      17965.2      33.1478
      17977.8      33.0857
      17990.3      33.0169
      18002.9      32.9514
      18015.4      32.8884
      18028.0      32.8187
      18040.5      32.7605
      18053.1      32.6938
      18065.6      32.6332
      18078.2      32.5651
      18090.7      32.5034
      18103.3      32.4376
      18115.8      32.3746
      18128.4      32.3103
      18140.9      32.2476
      18153.5      32.1830
      18166.0      32.1188
      18178.6      32.0543
      18191.1      31.9864
      18203.6      31.9286
      18216.2      31.8689
      18228.7      31.8036
      18241.3      31.7457
      18253.8      31.6790
      18266.4      31.6209
      18278.9      31.5623
      18291.5      31.4978
      18304.0      31.4402
      18316.6      31.3746
      18329.1      31.3166
      18341.7      31.2554
      18354.2      31.1924
      18366.8      31.1339
      18379.3      31.0691
      18391.9      31.0093
      18404.4      30.9504
      18416.9      30.8888
      18429.5      30.8334
      18442.0      30.7728
      18454.6      30.7139
      18467.1      30.6528
      18479.7      30.5996
      18492.2      30.5370
      18504.8      30.4765
      18517.3      30.4219
      18529.9      30.3610
      18542.4      30.2993
      18555.0      30.2432
      18567.5      30.1819
      18580.1      30.1276
      18592.6      30.0646
      18605.2      30.0060
      18617.7      29.9531
      18630.3      29.8978
      18642.8      29.8346
      18655.3      29.7818
      18667.9      29.7272
      18680.4      29.6689
      18693.0      29.6124
      18705.5      29.5559
      18718.1      29.4994
      18730.6      29.4445
      18743.2      29.3846
      18755.7      29.3291
      18768.3      29.2735
      18780.8      29.2190
      18793.4      29.1574
      18805.9      29.1068
      18818.5      29.0496
      18831.0      28.9965
      18843.6      28.9437
      18856.1      28.8862
      18868.7      28.8353
      18881.2      28.7774
      18893.7      28.7276
      18906.3      28.6677
      18918.8      28.6169
      18931.4      28.5638
      18943.9      28.5082
      18956.5      28.4555
      18969.0      28.3992
      18981.6      28.3444
      18994.1      28.2894
      19006.7      28.2393
      19019.2      28.1880
      19031.8      28.1309
      19044.3      28.0848
      19056.9      28.0285
      19069.4      27.9775
      19082.0      27.9254
      19094.5      27.8733
      19107.0      27.8229
      19119.6      27.7694
      19132.1      27.7148
      19144.7      27.6648
      19157.2      27.6146
      19169.8      27.5564
      19182.3      27.5084
      19194.9      27.4571
      19207.4      27.4049
      19220.0      27.3552
      19232.5      27.3066
      19245.1      27.2549
      19257.6      27.2048
      19270.2      27.1558
      19282.7      27.1020
      19295.3      27.0574
      19307.8      27.0017
      19320.4      26.9566
      19332.9      26.9027
      19345.4      26.8530
      19358.0      26.8043
      19370.5      26.7538
      19383.1      26.7044
      19395.6      26.6512
      19408.2      26.6061
      19420.7      26.5583
      19433.3      26.5067
      19445.8      26.4583
      19458.4      26.4133
      19470.9      26.3639
      19483.5      26.3153
      19496.0      26.2683
      19508.6      26.2208
      19521.1      26.1706
      19533.7      26.1217
      19546.2      26.0745
      19558.7      26.0272
      19571.3      25.9787
      19583.8      25.9307
      19596.4      25.8815
      19608.9      25.8354
      19621.5      25.7907
      19634.0      25.7406
      19646.6      25.6961
      19659.1      25.6489
      19671.7      25.6044
      19684.2      25.5563
      19696.8      25.5120
      19709.3      25.4639
      19721.9      25.4181
      19734.4      25.3729
      19747.0      25.3223
      19759.5      25.2795
      19772.1      25.2317
      19784.6      25.1879
      19797.1      25.1407
      19809.7      25.0937
      19822.2      25.0506
      19834.8      25.0074
      19847.3      24.9612
      19859.9      24.9152
      19872.4      24.8715
      19885.0      24.8269
      19897.5      24.7817
      19910.1      24.7410
      19922.6      24.6928
      19935.2      24.6476
      19947.7      24.6043
      19960.3      24.5601
      19972.8      24.5138
      19985.4      24.4702
      19997.9      24.4272
      20010.5      24.3816
      20023.0      24.3389
      20035.5      24.2993
      20048.1      24.2526
      20060.6      24.2116
      20073.2      24.1676
      20085.7      24.1250
      20098.3      24.0820
      20110.8      24.0379
      20123.4      23.9960
      20135.9      23.9545
      20148.5      23.9099
      20161.0      23.8669
      20173.6      23.8262
      20186.1      23.7800
      20198.7      23.7376
      20211.2      23.6996
      20223.8      23.6547
      20236.3      23.6134
      20248.8      23.5741
      20261.4      23.5297
      20273.9      23.4903
      20286.5      23.4484
      20299.0      23.4099
      20311.6      23.3648
      20324.1      23.3232
      20336.7      23.2848
      20349.2      23.2427
      20361.8      23.1994
      20374.3      23.1592
      20386.9      23.1185
      20399.4      23.0775
      20412.0      23.0379
      20424.5      22.9960
      20437.1      22.9578
      20449.6      22.9177
      20462.1      22.8788
      20474.7      22.8366
      20487.2      22.7978
      20499.8      22.7583
      20512.3      22.7184
      20524.9      22.6772
      20537.4      22.6371
      20550.0      22.5991
      20562.5      22.5598
      20575.1      22.5180
      20587.6      22.4782
      20600.2      22.4419
      20612.7      22.3983
      20625.3      22.3621
      20637.8      22.3244
      20650.4      22.2869
      20662.9      22.2483
      20675.5      22.2076
      20688.0      22.1697
      20700.5      22.1338
      20713.1      22.0941
      20725.6      22.0550
      20738.2      22.0153
      20750.7      21.9768
      20763.3      21.9399
      20775.8      21.9032
      20788.4      21.8645
      20800.9      21.8235
      20813.5      21.7880
      20826.0      21.7514
      20838.6      21.7127
      20851.1      21.6782
      20863.7      21.6387
      20876.2      21.6034
      20888.8      21.5667
      20901.3      21.5297
      20913.9      21.4901
      20926.4      21.4566
      20938.9      21.4157
      20951.5      21.3808
      20964.0      21.3454
      20976.6      21.3081
      20989.1      21.2704
      21001.7      21.2320
      21014.2      21.1962
      21026.8      21.1627
      21039.3      21.1240
      21051.9      21.0915
      21064.4      21.0550
      21077.0      21.0176
      21089.5      20.9828
      21102.1      20.9488
      21114.6      20.9121
      21127.2      20.8748
      21139.7      20.8401
      21152.3      20.8061
      21164.8      20.7693
      21177.3      20.7335
      21189.9      20.6984
      21202.4      20.6603
      21215.0      20.6282
      21227.5      20.5941
      21240.1      20.5606
      21252.6      20.5232
      21265.2      20.4899
      21277.7      20.4555
      21290.3      20.4207
      21302.8      20.3889
      21315.4      20.3513
      21327.9      20.3182
      21340.5      20.2850
      21353.0      20.2477
      21365.6      20.2140
      21378.1      20.1800
      21390.6      20.1479
      21403.2      20.1112
      21415.7      20.0778
      21428.3      20.0464
      21440.8      20.0136
      21453.4      19.9790
      21465.9      19.9450
      21478.5      19.9115
      21491.0      19.8785
      21503.6      19.8481
      21516.1      19.8111
      21528.7      19.7799
      21541.2      19.7472
      21553.8      19.7141
      21566.3      19.6799
      21578.9      19.6455
      21591.4      19.6131
      21604.0      19.5817
      21616.5      19.5476
      21629.0      19.5174
      21641.6      19.4835
      21654.1      19.4523
      21666.7      19.4217
      21679.2      19.3883
      21691.8      19.3546
      21704.3      19.3245
      21716.9      19.2919
      21729.4      19.2594
      21742.0      19.2286
      21754.5      19.1953
      21767.1      19.1647
      21779.6      19.1312
      21792.2      19.0989
      21804.7      19.0687
      21817.3      19.0382
      21829.8      19.0062
      21842.4      18.9752
      21854.9      18.9433
      21867.4      18.9153
      21880.0      18.8816
      21892.5      18.8513
      21905.1      18.8203
      21917.6      18.7883
      21930.2      18.7598
      21942.7      18.7273
      21955.3      18.6968
      21967.8      18.6647
      21980.4      18.6358
      21992.9      18.6039
      22005.5      18.5732
      22018.0      18.5439
      22030.6      18.5127
      22043.1      18.4830
      22055.7      18.4537
      22068.2      18.4239
      22080.7      18.3946
      22093.3      18.3642
      22105.8      18.3353
      22118.4      18.3032
      22130.9      18.2755
      22143.5      18.2428
      22156.0      18.2154
      22168.6      18.1831
      22181.1      18.1564
      22193.7      18.1232
      22206.2      18.0956
      22218.8      18.0673
      22231.3      18.0365
      22243.9      18.0103
      22256.4      17.9798
      22269.0      17.9508
      22281.5      17.9207
      22294.1      17.8925
      22306.6      17.8639
      22319.1      17.8342
      22331.7      17.8078
      22344.2      17.7777
      22356.8      17.7478
      22369.3      17.7195
      22381.9      17.6896
      22394.4      17.6627
      22407.0      17.6324
      22419.5      17.6053
      22432.1      17.5786
      22444.6      17.5488
      22457.2      17.5240
      22469.7      17.4938
      22482.3      17.4647
      22494.8      17.4389
      22507.4      17.4094
      22519.9      17.3822
      22532.5      17.3554
      22545.0      17.3255
      22557.5      17.2985
      22570.1      17.2695
      22582.6      17.2444
      22595.2      17.2138
      22607.7      17.1878
      22620.3      17.1610
      22632.8      17.1351
      22645.4      17.1057
      22657.9      17.0780
      22670.5      17.0532
      22683.0      17.0264
      22695.6      16.9994
      22708.1      16.9708
      22720.7      16.9456
      22733.2      16.9160
      22745.8      16.8904
      22758.3      16.8650
      22770.8      16.8360
      22783.4      16.8101
      22795.9      16.7828
      22808.5      16.7574
      22821.0      16.7304
      22833.6      16.7031
      22846.1      16.6767
      22858.7      16.6520
      22871.2      16.6263
      22883.8      16.5993
      22896.3      16.5727
      22908.9      16.5476
      22921.4      16.5229
      22934.0      16.4945
      22946.5      16.4692
      22959.1      16.4419
      22971.6      16.4171
      22984.2      16.3907
      22996.7      16.3656
      23009.2      16.3392
      23021.8      16.3129
      23034.3      16.2882
      23046.9      16.2633
      23059.4      16.2372
      23072.0      16.2138
      23084.5      16.1878
      23097.1      16.1623
      23109.6      16.1367
      23122.2      16.1137
      23134.7      16.0858
      23147.3      16.0612
      23159.8      16.0378
      23172.4      16.0096
      23184.9      15.9868
      23197.5      15.9617
      23210.0      15.9352
      23222.5      15.9108
      23235.1      15.8884
      23247.6      15.8638
      23260.2      15.8374
      23272.7      15.8138
      23285.3      15.7895
      23297.8      15.7651
      23310.4      15.7401
      23322.9      15.7165
      23335.5      15.6929
      23348.0      15.6658
      23360.6      15.6425
      23373.1      15.6199
      23385.7      15.5934
      23398.2      15.5700
      23410.8      15.5466
      23423.3      15.5215
      23435.8      15.4997
      23448.4      15.4745
      23460.9      15.4507
      23473.5      15.4287
      23486.0      15.4027
      23498.6      15.3803
      23511.1      15.3565
      23523.7      15.3330
      23536.2      15.3108
      23548.8      15.2845
      23561.3      15.2614
      23573.9      15.2385
      23586.4      15.2148
      23599.0      15.1922
      23611.5      15.1678
      23624.1      15.1463
      23636.6      15.1225
      23649.2      15.0994
      23661.7      15.0759
      23674.2      15.0549
      23686.8      15.0313
      23699.3      15.0088
      23711.9      14.9848
      23724.4      14.9622
      23737.0      14.9388
      23749.5      14.9174
      23762.1      14.8942
      23774.6      14.8695
      23787.2      14.8498
      23799.7      14.8240
      23812.3      14.8037
      23824.8      14.7810
      23837.4      14.7593
      23849.9      14.7359
      23862.5      14.7143
      23875.0      14.6918
      23887.6      14.6716
      23900.1      14.6475
      23912.6      14.6262
      23925.2      14.6030
      23937.7      14.5809
      23950.3      14.5611
      23962.8      14.5364
      23975.4      14.5138
      23987.9      14.4928
      24000.5      14.4718
      24013.0      14.4505
      24025.6      14.4271
      24038.1      14.4072
      24050.7      14.3841
      24063.2      14.3630
      24075.8      14.3434
      24088.3      14.3192
      24100.9      14.2999
      24113.4      14.2777
      24126.0      14.2561
      24138.5      14.2343
      24151.0      14.2140
      24163.6      14.1919
      24176.1      14.1704
      24188.7      14.1490
      24201.2      14.1278
      24213.8      14.1074
      24226.3      14.0846
      24238.9      14.0656
      24251.4      14.0440
      24264.0      14.0244
      24276.5      14.0038
      24289.1      13.9818
      24301.6      13.9597
      24314.2      13.9421
      24326.7      13.9183
      24339.3      13.8999
      24351.8      13.8793
      24364.4      13.8563
      24376.9      13.8357
      24389.4      13.8166
      24402.0      13.7956
      24414.5      13.7747
      24427.1      13.7542
      24439.6      13.7349
      24452.2      13.7158
      24464.7      13.6946
      24477.3      13.6739
      24489.8      13.6539
      24502.4      13.6337
      24514.9      13.6152
      24527.5      13.5933
      24540.0      13.5736
      24552.6      13.5536
      24565.1      13.5330
      24577.7      13.5128
      24590.2      13.4945
      24602.7      13.4715
      24615.3      13.4538
      24627.8      13.4333
      24640.4      13.4152
      24652.9      13.3943
      24665.5      13.3757
      24678.0      13.3558
      24690.6      13.3369
      24703.1      13.3166
      24715.7      13.2971
      24728.2      13.2782
      24740.8      13.2582
      24753.3      13.2387
      24765.9      13.2192
      24778.4      13.1997
      24791.0      13.1801
      24803.5      13.1608
      24816.0      13.1418
      24828.6      13.1223
      24841.1      13.1047
      24853.7      13.0844
      24866.2      13.0669
      24878.8      13.0479
      24891.3      13.0283
      24903.9      13.0091
      24916.4      12.9907
      24929.0      12.9705
      24941.5      12.9538
      24954.1      12.9324
      24966.6      12.9157
      24979.2      12.8966
      24991.7      12.8770
      25004.3      12.8579
      25016.8      12.8383
      25029.4      12.8229
      25041.9      12.8036
      25054.4      12.7832
      25067.0      12.7675
      25079.5      12.7477
      25092.1      12.7307
      25104.6      12.7107
      25117.2      12.6938
      25129.7      12.6738
      25142.3      12.6576
      25154.8      12.6371
      25167.4      12.6197
      25179.9      12.6012
      25192.5      12.5837
      25205.0      12.5653
      25217.6      12.5467
      25230.1      12.5298
      25242.7      12.5121
      25255.2      12.4936
      25267.8      12.4749
      25280.3      12.4587
      25292.8      12.4404
      25305.4      12.4219
      25317.9      12.4044
      25330.5      12.3878
      25343.0      12.3699
      25355.6      12.3507
      25368.1      12.3325
      25380.7      12.3166
      25393.2      12.2982
      25405.8      12.2792
      25418.3      12.2643
      25430.9      12.2455
      25443.4      12.2287
      25456.0      12.2114
      25468.5      12.1927
      25481.1      12.1768
      25493.6      12.1597
      25506.1      12.1424
      25518.7      12.1257
      25531.2      12.1064
      25543.8      12.0905
      25556.3      12.0740
      25568.9      12.0549
      25581.4      12.0389
      25594.0      12.0260
