# spectrum  Type     U-V    B-V    V-R    V-I    V-J    V-K
# ---------------------------------------------------------
#  bpgs_4  B1V     -1.18  -0.27  -0.09  -0.21  -0.61  -0.81
#
# lambda (Angstroms)  flux (phot/lambda)
#----------------------------------------------------------
PHOTLAM
      512.023      218.058
      524.570      261.689
      537.117      268.846
      549.664      294.360
      562.212      325.921
      574.759      346.368
      587.306      366.666
      599.853      403.387
      612.401      441.486
      624.948      474.010
      637.495      505.565
      650.042      534.937
      662.590      563.546
      675.137      593.784
      687.684      627.029
      700.231      660.378
      712.779      699.344
      725.326      741.857
      737.873      786.138
      750.420      836.518
      762.968      887.405
      775.515      929.707
      788.062      961.152
      800.609      992.574
      813.157      1016.66
      825.704      1022.92
      838.251      1028.38
      850.798      1044.17
      863.346      1108.42
      875.893      1178.86
      888.440      1338.55
      900.987      2427.07
      913.535      3762.03
      926.082      7653.88
      938.629      13846.1
      951.177      16038.4
      963.724      16807.6
      976.271      16080.5
      988.818      15629.1
      1001.37      16615.9
      1013.91      17662.7
      1026.46      18489.5
      1039.01      18963.4
      1051.55      18324.9
      1064.10      17945.0
      1076.65      18689.1
      1089.20      19245.5
      1101.74      18937.6
      1114.29      18522.9
      1126.84      17994.2
      1139.39      17524.2
      1151.93      17439.4
      1164.48      17116.2
      1177.03      16237.5
      1189.57      14953.1
      1202.12      13253.3
      1214.67      10736.5
      1227.22      12008.8
      1239.76      15820.1
      1252.31      17341.3
      1264.86      18390.5
      1277.41      19289.8
      1289.95      19218.4
      1302.50      18839.6
      1315.05      18560.6
      1327.59      18002.9
      1340.14      17426.1
      1352.69      17845.0
      1365.24      18250.5
      1377.78      18288.5
      1390.33      16532.3
      1402.88      15141.9
      1415.42      16193.7
      1427.97      16366.3
      1440.52      16034.1
      1453.07      16247.0
      1465.61      16443.0
      1478.16      16503.2
      1490.71      16318.9
      1503.26      16264.4
      1515.80      16651.8
      1528.35      15596.8
      1540.90      13897.9
      1553.44      12908.8
      1565.99      12914.1
      1578.54      13782.6
      1591.09      13382.4
      1603.63      12676.4
      1616.18      12031.6
      1628.73      11858.2
      1641.28      11935.1
      1653.82      12088.8
      1666.37      12420.7
      1678.92      12836.3
      1691.46      12548.8
      1704.01      12056.0
      1716.56      11516.0
      1729.11      11848.0
      1741.65      12335.7
      1754.20      11970.7
      1766.75      11693.5
      1779.30      11556.9
      1791.84      11389.5
      1804.39      11173.8
      1816.94      10885.7
      1829.48      10613.9
      1842.03      10373.2
      1854.58      10211.2
      1867.13      9945.53
      1879.67      9620.52
      1892.22      9464.66
      1904.77      9291.78
      1917.32      9041.61
      1929.86      8758.31
      1942.41      8537.83
      1954.96      8537.23
      1967.50      8433.14
      1980.05      8251.65
      1992.60      8097.04
      2005.15      7943.94
      2017.69      7787.65
      2030.24      7664.11
      2042.79      7538.37
      2055.33      7377.34
      2067.88      7161.02
      2080.43      6933.59
      2092.98      6829.90
      2105.52      6791.73
      2118.07      6804.75
      2130.62      6702.22
      2143.17      6589.64
      2155.71      6537.86
      2168.26      6454.04
      2180.81      6354.87
      2193.35      6276.97
      2205.90      6251.63
      2218.45      6278.05
      2231.00      6258.50
      2243.54      6186.64
      2256.09      6029.77
      2268.64      5954.92
      2281.19      5905.84
      2293.73      5783.81
      2306.28      5785.62
      2318.83      5910.20
      2331.37      5940.73
      2343.92      5937.66
      2356.47      5907.75
      2369.02      5738.10
      2381.56      5558.13
      2394.11      5581.96
      2406.66      5608.07
      2419.20      5615.72
      2431.75      5604.56
      2444.30      5581.67
      2456.85      5543.25
      2469.39      5459.80
      2481.94      5356.98
      2494.49      5253.18
      2507.04      5184.36
      2519.58      5140.82
      2532.13      5078.16
      2544.68      5014.52
      2557.22      4956.41
      2569.77      4909.30
      2582.32      4860.63
      2594.87      4795.72
      2607.41      4775.40
      2619.96      4776.68
      2632.51      4710.14
      2645.06      4622.13
      2657.60      4524.09
      2670.15      4487.04
      2682.70      4473.36
      2695.24      4466.40
      2707.79      4446.28
      2720.34      4411.05
      2732.89      4341.74
      2745.43      4286.46
      2757.98      4255.51
      2770.53      4215.26
      2783.07      4137.29
      2795.62      3976.60
      2808.17      3981.59
      2820.72      4061.39
      2833.26      4025.34
      2845.81      3971.12
      2858.36      3916.05
      2870.91      3890.31
      2883.45      3858.24
      2896.00      3794.97
      2908.55      3736.54
      2921.09      3678.04
      2933.64      3606.17
      2946.19      3561.87
      2958.74      3544.19
      2971.28      3494.75
      2983.83      3436.74
      2996.38      3378.77
      3008.93      3349.42
      3021.47      3329.62
      3034.02      3295.12
      3046.57      3272.29
      3059.11      3263.87
      3071.66      3273.28
      3084.21      3288.64
      3096.76      3305.87
      3109.30      3285.53
      3121.85      3248.58
      3134.40      3210.25
      3146.95      3175.72
      3159.49      3146.18
      3172.04      3130.24
      3184.59      3102.01
      3197.13      3050.28
      3209.68      3016.58
      3222.23      2995.71
      3234.78      2993.09
      3247.32      3009.86
      3259.87      3017.74
      3272.42      2900.75
      3284.97      2884.31
      3297.51      2938.93
      3310.06      2906.07
      3322.61      2898.57
      3335.15      2886.52
      3347.70      2827.49
      3360.25      2840.83
      3372.80      2830.23
      3385.34      2811.64
      3397.89      2784.85
      3410.44      2732.47
      3422.98      2715.83
      3435.53      2668.80
      3448.08      2704.19
      3460.63      2727.98
      3473.17      2651.14
      3485.72      2598.69
      3498.27      2572.68
      3510.82      2516.16
      3523.36      2502.36
      3535.91      2498.02
      3548.46      2466.36
      3561.00      2452.61
      3573.55      2429.05
      3586.10      2382.69
      3598.65      2339.02
      3611.19      2381.18
      3623.74      2336.19
      3636.29      2293.52
      3648.84      2295.95
      3661.38      2274.98
      3673.93      2246.79
      3686.48      2225.17
      3699.02      2176.29
      3711.57      2179.45
      3724.12      2164.27
      3736.67      2171.10
      3749.21      2205.81
      3761.76      2196.04
      3774.31      2226.80
      3786.86      2289.35
      3799.40      2198.63
      3811.95      2310.42
      3824.50      2243.10
      3837.04      2104.33
      3849.59      2354.66
      3862.14      2438.16
      3874.69      2303.74
      3887.23      2066.52
      3899.78      2163.93
      3912.33      2366.50
      3924.87      2361.03
      3937.42      2388.61
      3949.97      2364.27
      3962.52      2127.47
      3975.06      2001.83
      3987.61      2280.12
      4000.16      2374.38
      4012.71      2294.81
      4025.25      2218.63
      4037.80      2303.32
      4050.35      2334.19
      4062.89      2283.43
      4075.44      2202.01
      4087.99      2108.11
      4100.54      1889.08
      4113.08      1969.68
      4125.63      2167.62
      4138.18      2133.88
      4150.73      2118.08
      4163.27      2145.59
      4175.82      2152.58
      4188.37      2158.40
      4200.91      2135.80
      4213.46      2122.88
      4226.01      2109.75
      4238.56      2093.90
      4251.10      2086.24
      4263.65      2070.04
      4276.20      2032.79
      4288.74      1998.36
      4301.29      1996.19
      4313.84      1900.96
      4326.39      1753.55
      4338.93      1591.44
      4351.48      1680.66
      4364.03      1820.37
      4376.58      1859.30
      4389.12      1829.87
      4401.67      1867.23
      4414.22      1824.00
      4426.76      1782.54
      4439.31      1758.18
      4451.86      1764.41
      4464.41      1694.21
      4476.95      1659.48
      4489.50      1703.79
      4502.05      1714.86
      4514.60      1708.54
      4527.14      1693.25
      4539.69      1674.39
      4552.24      1661.37
      4564.78      1657.25
      4577.33      1656.79
      4589.88      1632.59
      4602.43      1604.37
      4614.97      1600.37
      4627.52      1584.19
      4640.07      1541.65
      4652.62      1544.11
      4665.16      1537.40
      4677.71      1523.56
      4690.26      1512.37
      4702.81      1489.07
      4715.35      1490.38
      4727.90      1514.66
      4740.45      1501.98
      4752.99      1483.32
      4765.54      1470.77
      4778.09      1464.04
      4790.64      1458.67
      4803.18      1432.63
      4815.73      1425.80
      4828.28      1422.53
      4840.82      1382.39
      4853.37      1251.63
      4865.92      1178.35
      4878.47      1311.05
      4891.01      1362.26
      4903.56      1349.35
      4916.11      1306.57
      4928.66      1296.72
      4941.20      1328.22
      4953.75      1329.21
      4966.30      1311.90
      4978.84      1299.16
      4991.39      1300.96
      5003.94      1259.61
      5016.49      1256.14
      5029.03      1267.44
      5041.58      1259.51
      5054.13      1260.99
      5066.67      1252.96
      5079.22      1233.69
      5091.77      1221.41
      5104.32      1205.04
      5116.86      1190.26
      5129.41      1181.74
      5141.96      1176.50
      5154.51      1165.68
      5167.05      1165.60
      5179.60      1160.58
      5192.15      1157.30
      5204.69      1146.32
      5217.24      1135.51
      5229.79      1121.41
      5242.34      1107.20
      5254.88      1106.93
      5267.43      1111.15
      5279.98      1096.08
      5292.53      1096.83
      5305.07      1072.01
      5317.62      1068.73
      5330.17      1058.20
      5342.71      1050.51
      5355.26      1045.55
      5367.81      1049.03
      5380.36      1049.11
      5392.90      1035.90
      5405.45      1027.17
      5418.00      1026.10
      5430.55      1042.89
      5443.09      1018.85
      5455.64      999.372
      5468.19      996.154
      5480.73      985.583
      5493.28      976.657
      5505.83      987.978
      5518.38      991.549
      5530.92      979.746
      5543.47      977.898
      5556.02      963.148
      5568.57      957.710
      5581.11      960.466
      5593.66      948.656
      5606.21      946.706
      5618.75      935.954
      5631.30      928.098
      5643.85      921.281
      5656.40      914.543
      5668.94      912.134
      5681.49      901.518
      5694.04      900.987
      5706.58      890.819
      5719.13      890.370
      5731.68      879.473
      5744.23      874.419
      5756.77      873.084
      5769.32      865.818
      5781.87      858.194
      5794.41      858.025
      5806.96      858.026
      5819.51      857.276
      5832.06      853.727
      5844.60      843.664
      5857.15      824.249
      5869.70      808.323
      5882.25      798.708
      5894.79      803.851
      5907.34      806.410
      5919.89      806.604
      5932.44      809.096
      5944.98      808.408
      5957.53      802.611
      5970.08      798.019
      5982.62      794.407
      5995.17      792.305
      6007.72      789.224
      6020.27      784.955
      6032.81      778.030
      6045.36      774.612
      6057.91      776.549
      6070.45      781.587
      6083.00      787.645
      6095.55      793.644
      6108.10      790.605
      6120.64      781.039
      6133.19      765.907
      6145.74      755.499
      6158.29      750.638
      6170.83      738.682
      6183.38      729.128
      6195.93      729.611
      6208.47      730.491
      6221.02      729.716
      6233.57      722.004
      6246.12      714.399
      6258.66      707.588
      6271.21      699.422
      6283.76      693.640
      6296.30      693.291
      6308.85      691.690
      6321.40      689.803
      6333.95      689.868
      6346.49      688.305
      6359.04      685.175
      6371.59      682.997
      6384.14      680.526
      6396.68      677.261
      6409.23      672.973
      6421.78      668.594
      6434.32      665.206
      6446.87      660.812
      6459.42      655.143
      6471.97      646.970
      6484.51      640.766
      6497.06      638.528
      6509.61      634.297
      6522.16      627.289
      6534.70      614.328
      6547.25      593.874
      6559.80      573.192
      6572.34      583.007
      6584.89      599.685
      6597.44      616.698
      6609.99      617.026
      6622.53      612.983
      6635.08      613.710
      6647.63      610.328
      6660.18      603.765
      6672.72      596.756
      6685.27      594.550
      6697.82      598.377
      6710.36      598.542
      6722.91      596.666
      6735.46      592.982
      6748.01      592.034
      6760.55      591.360
      6773.10      583.401
      6785.65      581.335
      6798.20      587.666
      6810.74      594.890
      6823.29      603.433
      6835.84      613.468
      6848.38      600.404
      6860.93      575.535
      6873.48      555.779
      6886.03      548.358
      6898.57      553.692
      6911.12      560.882
      6923.67      561.457
      6936.21      547.766
      6948.76      542.302
      6961.31      541.021
      6973.86      538.777
      6986.40      537.471
      6998.95      537.057
      7011.50      536.069
      7024.05      533.655
      7036.59      528.950
      7049.14      523.285
      7061.69      517.539
      7074.23      512.795
      7086.78      512.980
      7099.33      516.360
      7111.88      512.269
      7124.42      507.032
      7136.97      502.869
      7149.52      502.589
      7162.07      502.098
      7174.61      496.247
      7187.16      491.235
      7199.71      487.498
      7212.25      485.185
      7224.80      480.076
      7237.35      470.586
      7249.90      464.937
      7262.44      460.751
      7274.99      456.488
      7287.54      458.756
      7300.09      464.786
      7312.63      466.143
      7325.18      463.270
      7337.73      456.300
      7350.27      455.654
      7362.82      456.892
      7375.37      457.461
      7387.92      457.673
      7400.46      457.026
      7413.01      452.826
      7425.56      450.888
      7438.11      451.885
      7450.65      447.224
      7463.20      442.157
      7475.75      440.013
      7488.29      437.222
      7500.84      435.596
      7513.39      441.270
      7525.94      449.908
      7538.48      460.636
      7551.03      470.852
      7563.58      475.155
      7576.12      466.362
      7588.67      426.432
      7601.22      389.964
      7613.77      429.502
      7626.31      444.631
      7638.86      427.263
      7651.41      416.899
      7663.96      403.260
      7676.50      381.087
      7689.05      381.446
      7701.60      391.838
      7714.15      399.588
      7726.69      401.723
      7739.24      399.816
      7751.79      402.226
      7764.33      402.506
      7776.88      397.578
      7789.43      392.681
      7801.98      388.874
      7814.52      388.303
      7827.07      387.765
      7839.62      387.133
      7852.16      387.344
      7864.71      385.689
      7877.26      381.056
      7889.81      378.779
      7902.35      378.442
      7914.90      380.961
      7927.45      380.036
      7939.99      376.785
      7952.54      375.263
      7965.09      374.875
      7977.64      375.384
      7990.18      373.217
      8002.73      369.973
      8015.28      366.526
      8027.83      365.019
      8040.37      365.602
      8052.92      369.983
      8065.47      371.521
      8078.02      368.772
      8090.56      366.743
      8103.11      365.918
      8115.66      367.199
      8128.20      361.848
      8140.75      352.939
      8153.30      346.045
      8165.85      343.059
      8178.39      344.332
      8190.94      347.891
      8203.49      349.675
      8216.03      346.474
      8228.58      346.695
      8241.13      350.152
      8253.68      358.483
      8266.22      355.261
      8278.77      341.204
      8291.32      338.824
      8303.86      342.210
      8316.41      350.051
      8328.96      343.554
      8341.51      331.515
      8354.05      324.903
      8366.60      324.504
      8379.15      327.978
      8391.70      322.705
      8404.24      320.155
      8416.79      325.604
      8429.34      326.700
      8441.88      327.484
      8454.43      333.820
      8466.98      334.945
      8479.53      331.522
      8492.07      329.380
      8504.62      330.014
      8517.17      333.965
      8529.72      329.214
      8542.26      323.565
      8554.81      325.466
      8567.36      319.867
      8579.90      310.006
      8592.45      310.328
      8605.00      310.204
      8617.55      306.954
      8630.09      306.497
      8642.64      305.718
      8655.19      301.180
      8667.73      294.010
      8680.28      290.232
      8692.83      311.647
      8705.38      325.258
      8717.92      322.712
      8730.47      311.552
      8743.02      302.291
      8755.57      304.116
      8768.11      305.857
      8780.66      308.012
      8793.21      314.321
      8805.76      314.303
      8818.30      305.792
      8830.85      293.281
      8843.40      284.736
      8855.94      286.840
      8868.49      282.919
      8881.04      278.095
      8893.59      284.152
      8906.13      292.311
      8918.68      300.232
      8931.23      300.227
      8943.78      298.186
      8956.32      295.895
      8968.87      284.945
      8981.42      271.774
      8993.96      266.543
      9006.51      264.330
      9019.06      266.213
      9031.61      283.579
      9044.15      290.117
      9056.70      272.198
      9069.25      269.468
      9081.80      274.419
      9094.34      280.359
      9106.89      277.578
      9119.44      267.840
      9131.98      261.224
      9144.53      258.062
      9157.08      259.711
      9169.63      268.924
      9182.17      275.313
      9194.72      264.317
      9207.27      253.750
      9219.81      246.379
      9232.36      248.522
      9244.91      256.492
      9257.46      269.231
      9270.00      270.766
      9282.55      269.338
      9295.10      271.114
      9307.65      264.863
      9320.19      257.736
      9332.74      275.498
      9345.29      283.812
      9357.83      274.509
      9370.38      268.105
      9382.93      274.606
      9395.48      307.920
      9408.02      289.671
      9420.57      245.338
      9433.12      234.177
      9445.66      239.814
      9458.21      254.144
      9470.76      220.918
      9483.31      201.143
      9495.85      241.880
      9508.40      269.625
      9520.95      278.780
      9533.50      250.883
      9546.04      232.052
      9558.59      230.328
      9571.14      243.071
      9583.69      254.048
      9596.23      253.620
      9608.78      252.587
      9621.33      250.688
      9633.87      245.584
      9646.42      242.024
      9658.97      241.516
      9671.52      250.522
      9684.06      252.888
      9696.61      239.829
      9709.16      236.226
      9721.71      238.209
      9734.25      242.790
      9746.80      240.870
      9759.35      234.388
      9771.89      236.156
      9784.44      237.520
      9796.99      235.348
      9809.53      235.456
      9822.08      237.659
      9834.63      242.860
      9847.18      246.027
      9859.72      245.785
      9872.27      236.698
      9884.82      232.236
      9897.37      236.776
      9909.91      234.688
      9922.46      230.994
      9935.01      230.240
      9947.55      230.363
      9960.10      230.509
      9972.65      228.610
      9985.20      228.385
      9997.74      229.678
      10010.3      218.855
      10022.8      206.317
      10035.4      200.263
      10047.9      198.672
      10060.5      201.220
      10073.0      210.714
      10085.6      215.137
      10098.1      212.690
      10110.7      216.354
      10123.2      219.990
      10135.8      219.209
      10148.3      218.944
      10160.9      219.228
      10173.4      219.662
      10186.0      220.050
      10198.5      219.704
      10211.0      214.265
      10223.6      212.188
      10236.1      219.463
      10248.7      219.111
      10261.2      216.276
      10273.8      219.948
      10286.3      215.475
      10298.9      204.014
      10311.4      206.888
      10324.0      212.059
      10336.5      214.076
      10349.1      209.509
      10361.6      206.556
      10374.2      219.225
      10386.7      217.953
      10399.3      204.184
      10411.8      202.947
      10424.4      207.027
      10436.9      214.236
      10449.4      212.403
      10462.0      209.118
      10474.5      213.729
      10487.1      215.839
      10499.6      215.431
      10512.2      215.695
      10524.7      210.970
      10537.3      198.985
      10549.8      191.627
      10562.4      188.903
      10574.9      193.565
      10587.5      198.471
      10600.0      202.393
      10612.6      202.486
      10625.1      201.847
      10637.7      201.238
      10650.2      200.613
      10662.7      199.972
      10675.3      199.360
      10687.8      198.717
      10700.4      198.103
      10712.9      197.457
      10725.5      196.855
      10738.0      196.208
      10750.6      195.582
      10763.1      194.960
      10775.7      194.336
      10788.2      193.720
      10800.8      193.043
      10813.3      192.290
      10825.9      191.488
      10838.4      190.703
      10851.0      189.915
      10863.5      189.134
      10876.1      188.333
      10888.6      187.556
      10901.1      186.765
      10913.7      185.984
      10926.2      185.186
      10938.8      184.404
      10951.3      183.604
      10963.9      182.823
      10976.4      182.034
      10989.0      181.248
      11001.5      180.448
      11014.1      179.574
      11026.6      178.716
      11039.2      177.847
      11051.7      176.966
      11064.3      176.117
      11076.8      175.231
      11089.4      174.372
      11101.9      173.507
      11114.4      172.626
      11127.0      171.769
      11139.5      170.891
      11152.1      170.032
      11164.6      169.162
      11177.2      168.284
      11189.7      167.430
      11202.3      166.557
      11214.8      165.666
      11227.4      164.795
      11239.9      163.910
      11252.5      163.030
      11265.0      162.158
      11277.6      161.276
      11290.1      160.381
      11302.7      159.518
      11315.2      158.632
      11327.8      157.751
      11340.3      156.866
      11352.8      155.996
      11365.4      155.115
      11377.9      154.230
      11390.5      153.350
      11403.0      152.479
      11415.6      151.637
      11428.1      150.812
      11440.7      149.963
      11453.2      149.128
      11465.8      148.286
      11478.3      147.442
      11490.9      146.608
      11503.4      145.766
      11516.0      144.938
      11528.5      144.086
      11541.1      143.256
      11553.6      142.406
      11566.1      141.579
      11578.7      140.737
      11591.2      139.894
      11603.8      139.091
      11616.3      138.318
      11628.9      137.555
      11641.4      136.803
      11654.0      136.035
      11666.5      135.283
      11679.1      134.516
      11691.6      133.754
      11704.2      132.990
      11716.7      132.227
      11729.3      131.471
      11741.8      130.713
      11754.4      129.948
      11766.9      129.189
      11779.5      128.425
      11792.0      127.671
      11804.5      126.940
      11817.1      126.292
      11829.6      125.622
      11842.2      124.966
      11854.7      124.301
      11867.3      123.651
      11879.8      122.994
      11892.4      122.326
      11904.9      121.672
      11917.5      121.010
      11930.0      120.354
      11942.6      119.698
      11955.1      119.035
      11967.7      118.378
      11980.2      117.716
      11992.8      117.058
      12005.3      116.448
      12017.9      115.916
      12030.4      115.363
      12042.9      114.825
      12055.5      114.282
      12068.0      113.744
      12080.6      113.200
      12093.1      112.657
      12105.7      112.116
      12118.2      111.569
      12130.8      111.036
      12143.3      110.491
      12155.9      109.946
      12168.4      109.412
      12181.0      108.862
      12193.5      108.329
      12206.1      107.841
      12218.6      107.424
      12231.2      107.012
      12243.7      106.598
      12256.2      106.183
      12268.8      105.766
      12281.3      105.350
      12293.9      104.936
      12306.4      104.519
      12319.0      104.107
      12331.5      103.688
      12344.1      103.275
      12356.6      102.857
      12369.2      102.447
      12381.7      102.028
      12394.3      101.613
      12406.8      101.278
      12419.4      100.995
      12431.9      100.716
      12444.5      100.442
      12457.0      100.164
      12469.6      99.8872
      12482.1      99.6116
      12494.6      99.3317
      12507.2      99.0541
      12519.7      98.7802
      12532.3      98.5045
      12544.8      98.2217
      12557.4      97.9459
      12569.9      97.6712
      12582.5      97.3925
      12595.0      97.1232
      12607.6      96.8474
      12620.1      96.6072
      12632.7      96.3436
      12645.2      96.0930
      12657.8      95.8469
      12670.3      95.5875
      12682.9      95.3307
      12695.4      95.0860
      12708.0      94.8298
      12720.5      94.5732
      12733.0      94.3247
      12745.6      94.0740
      12758.1      93.8195
      12770.7      93.5605
      12783.2      93.3140
      12795.8      93.0589
      12808.3      92.8181
      12820.9      92.5712
      12833.4      92.3388
      12846.0      92.0971
      12858.5      91.8588
      12871.1      91.6189
      12883.6      91.3837
      12896.2      91.1409
      12908.7      90.8956
      12921.3      90.6653
      12933.8      90.4209
      12946.3      90.1891
      12958.9      89.9423
      12971.4      89.7080
      12984.0      89.4647
      12996.5      89.2308
      13009.1      88.9954
      13021.6      88.7718
      13034.2      88.5462
      13046.7      88.3211
      13059.3      88.0890
      13071.8      87.8662
      13084.4      87.6374
      13096.9      87.4140
      13109.5      87.1865
      13122.0      86.9601
      13134.6      86.7311
      13147.1      86.5108
      13159.7      86.2776
      13172.2      86.0554
      13184.7      85.8289
      13197.3      85.6038
      13209.8      85.3798
      13222.4      85.1684
      13234.9      84.9566
      13247.5      84.7447
      13260.0      84.5237
      13272.6      84.3097
      13285.1      84.0955
      13297.7      83.8822
      13310.2      83.6668
      13322.8      83.4523
      13335.3      83.2376
      13347.9      83.0222
      13360.4      82.8073
      13373.0      82.5953
      13385.5      82.3765
      13398.0      82.1672
      13410.6      81.9619
      13423.1      81.7537
      13435.7      81.5528
      13448.2      81.3498
      13460.8      81.1498
      13473.3      80.9418
      13485.9      80.7415
      13498.4      80.5349
      13511.0      80.3350
      13523.5      80.1319
      13536.1      79.9319
      13548.6      79.7251
      13561.2      79.5249
      13573.7      79.3179
      13586.3      79.1200
      13598.8      78.9128
      13611.4      78.7186
      13623.9      78.5286
      13636.4      78.3338
      13649.0      78.1426
      13661.5      77.9492
      13674.1      77.7601
      13686.6      77.5615
      13699.2      77.3719
      13711.7      77.1803
      13724.3      76.9827
      13736.8      76.7942
      13749.4      76.6045
      13761.9      76.4090
      13774.5      76.2144
      13787.0      76.0287
      13799.6      75.8297
      13812.1      75.6486
      13824.7      75.4662
      13837.2      75.2788
      13849.7      75.1047
      13862.3      74.9129
      13874.8      74.7357
      13887.4      74.5520
      13899.9      74.3672
      13912.5      74.1843
      13925.0      74.0082
      13937.6      73.8202
      13950.1      73.6374
      13962.7      73.4535
      13975.2      73.2742
      13987.8      73.0872
      14000.3      72.9083
      14012.9      72.7358
      14025.4      72.5584
      14038.0      72.3838
      14050.5      72.2113
      14063.1      72.0353
      14075.6      71.8677
      14088.1      71.6892
      14100.7      71.5162
      14113.2      71.3401
      14125.8      71.1688
      14138.3      70.9978
      14150.9      70.8191
      14163.4      70.6521
      14176.0      70.4696
      14188.5      70.3011
      14201.1      70.1276
      14213.6      69.9589
      14226.2      69.8007
      14238.7      69.6322
      14251.3      69.4625
      14263.8      69.3020
      14276.4      69.1401
      14288.9      68.9710
      14301.5      68.8031
      14314.0      68.6441
      14326.5      68.4767
      14339.1      68.3100
      14351.6      68.1478
      14364.2      67.9822
      14376.7      67.8146
      14389.3      67.6546
      14401.8      67.4864
      14414.4      67.3313
      14426.9      67.1716
      14439.5      67.0180
      14452.0      66.8616
      14464.6      66.7006
      14477.1      66.5467
      14489.7      66.3916
      14502.2      66.2311
      14514.8      66.0754
      14527.3      65.9220
      14539.8      65.7602
      14552.4      65.6067
      14564.9      65.4461
      14577.5      65.2896
      14590.0      65.1357
      14602.6      64.9792
      14615.1      64.8318
      14627.7      64.6796
      14640.2      64.5303
      14652.8      64.3837
      14665.3      64.2314
      14677.9      64.0836
      14690.4      63.9318
      14703.0      63.7851
      14715.5      63.6384
      14728.1      63.4873
      14740.6      63.3388
      14753.2      63.1865
      14765.7      63.0415
      14778.2      62.8888
      14790.8      62.7394
      14803.3      62.5962
      14815.9      62.4493
      14828.4      62.3094
      14841.0      62.1693
      14853.5      62.0229
      14866.1      61.8833
      14878.6      61.7390
      14891.2      61.6018
      14903.7      61.4574
      14916.3      61.3144
      14928.8      61.1729
      14941.4      61.0296
      14953.9      60.8915
      14966.5      60.7495
      14979.0      60.6028
      14991.6      60.4649
      15004.1      60.3218
      15016.6      60.1877
      15029.2      60.0522
      15041.7      59.9190
      15054.3      59.7788
      15066.8      59.6433
      15079.4      59.5134
      15091.9      59.3751
      15104.5      59.2372
      15117.0      59.1036
      15129.6      58.9673
      15142.1      58.8342
      15154.7      58.6936
      15167.2      58.5628
      15179.8      58.4258
      15192.3      58.2910
      15204.9      58.1582
      15217.4      58.0262
      15229.9      57.8992
      15242.5      57.7717
      15255.0      57.6409
      15267.6      57.5120
      15280.1      57.3801
      15292.7      57.2571
      15305.2      57.1209
      15317.8      56.9990
      15330.3      56.8643
      15342.9      56.7389
      15355.4      56.6080
      15368.0      56.4759
      15380.5      56.3530
      15393.1      56.2192
      15405.6      56.0967
      15418.2      55.9695
      15430.7      55.8488
      15443.3      55.7252
      15455.8      55.6029
      15468.3      55.4810
      15480.9      55.3564
      15493.4      55.2383
      15506.0      55.1131
      15518.5      54.9862
      15531.1      54.8682
      15543.6      54.7447
      15556.2      54.6199
      15568.7      54.4985
      15581.3      54.3744
      15593.8      54.2526
      15606.4      54.1334
      15618.9      54.0145
      15631.5      53.8989
      15644.0      53.7807
      15656.6      53.6634
      15669.1      53.5473
      15681.7      53.4280
      15694.2      53.3118
      15706.7      53.1928
      15719.3      53.0776
      15731.8      52.9601
      15744.4      52.8416
      15756.9      52.7260
      15769.5      52.6052
      15782.0      52.4920
      15794.6      52.3748
      15807.1      52.2581
      15819.7      52.1455
      15832.2      52.0359
      15844.8      51.9200
      15857.3      51.8113
      15869.9      51.6966
      15882.4      51.5857
      15895.0      51.4714
      15907.5      51.3623
      15920.0      51.2486
      15932.6      51.1382
      15945.1      51.0220
      15957.7      50.9122
      15970.2      50.8017
      15982.8      50.6877
      15995.3      50.5768
      16007.9      50.4669
      16020.4      50.3568
      16033.0      50.2545
      16045.5      50.1450
      16058.1      50.0407
      16070.6      49.9319
      16083.2      49.8250
      16095.7      49.7168
      16108.3      49.6126
      16120.8      49.5029
      16133.3      49.3990
      16145.9      49.2918
      16158.4      49.1841
      16171.0      49.0755
      16183.5      48.9707
      16196.1      48.8601
      16208.6      48.7599
      16221.2      48.6574
      16233.7      48.5543
      16246.3      48.4531
      16258.8      48.3507
      16271.4      48.2467
      16283.9      48.1453
      16296.5      48.0430
      16309.0      47.9429
      16321.6      47.8380
      16334.1      47.7364
      16346.7      47.6346
      16359.2      47.5323
      16371.7      47.4285
      16384.3      47.3255
      16396.8      47.2288
      16409.4      47.1282
      16421.9      47.0254
      16434.5      46.9278
      16447.0      46.8349
      16459.6      46.7346
      16472.1      46.6401
      16484.7      46.5388
      16497.2      46.4377
      16509.8      46.3467
      16522.3      46.2409
      16534.9      46.1498
      16547.4      46.0497
      16560.0      45.9533
      16572.5      45.8489
      16585.1      45.7630
      16597.6      45.6545
      16610.1      45.5669
      16622.7      45.4706
      16635.2      45.3737
      16647.8      45.2831
      16660.3      45.1881
      16672.9      45.0991
      16685.4      44.9999
      16698.0      44.9106
      16710.5      44.8165
      16723.1      44.7221
      16735.6      44.6283
      16748.2      44.5306
      16760.7      44.4428
      16773.3      44.3493
      16785.8      44.2508
      16798.4      44.1581
      16810.9      44.0727
      16823.4      43.9820
      16836.0      43.8931
      16848.5      43.8020
      16861.1      43.7091
      16873.6      43.6278
      16886.2      43.5322
      16898.7      43.4443
      16911.3      43.3525
      16923.8      43.2687
      16936.4      43.1744
      16948.9      43.0862
      16961.5      43.0028
      16974.0      42.9039
      16986.6      42.8190
      16999.1      42.7272
      17011.7      42.6440
      17024.2      42.5606
      17036.8      42.4702
      17049.3      42.3838
      17061.8      42.3035
      17074.4      42.2113
      17086.9      42.1310
      17099.5      42.0461
      17112.0      41.9571
      17124.6      41.8688
      17137.1      41.7851
      17149.7      41.7010
      17162.2      41.6160
      17174.8      41.5277
      17187.3      41.4429
      17199.9      41.3580
      17212.4      41.2729
      17225.0      41.1934
      17237.5      41.1077
      17250.1      41.0284
      17262.6      40.9503
      17275.1      40.8615
      17287.7      40.7847
      17300.2      40.6956
      17312.8      40.6193
      17325.3      40.5369
      17337.9      40.4569
      17350.4      40.3657
      17363.0      40.2902
      17375.5      40.2077
      17388.1      40.1284
      17400.6      40.0415
      17413.2      39.9656
      17425.7      39.8877
      17438.3      39.8046
      17450.8      39.7312
      17463.4      39.6509
      17475.9      39.5712
      17488.5      39.4947
      17501.0      39.4105
      17513.5      39.3380
      17526.1      39.2573
      17538.6      39.1786
      17551.2      39.0986
      17563.7      39.0220
      17576.3      38.9461
      17588.8      38.8640
      17601.4      38.7840
      17613.9      38.7104
      17626.5      38.6348
      17639.0      38.5614
      17651.6      38.4812
      17664.1      38.4080
      17676.7      38.3314
      17689.2      38.2606
      17701.8      38.1788
      17714.3      38.1074
      17726.9      38.0324
      17739.4      37.9528
      17751.9      37.8795
      17764.5      37.8045
      17777.0      37.7299
      17789.6      37.6501
      17802.1      37.5773
      17814.7      37.5051
      17827.2      37.4325
      17839.8      37.3630
      17852.3      37.2909
      17864.9      37.2169
      17877.4      37.1396
      17890.0      37.0747
      17902.5      36.9978
      17915.1      36.9296
      17927.6      36.8529
      17940.2      36.7819
      17952.7      36.7108
      17965.2      36.6359
      17977.8      36.5685
      17990.3      36.4937
      18002.9      36.4226
      18015.4      36.3542
      18028.0      36.2785
      18040.5      36.2155
      18053.1      36.1431
      18065.6      36.0774
      18078.2      36.0035
      18090.7      35.9365
      18103.3      35.8652
      18115.8      35.7968
      18128.4      35.7270
      18140.9      35.6590
      18153.5      35.5889
      18166.0      35.5193
      18178.6      35.4492
      18191.1      35.3755
      18203.6      35.3128
      18216.2      35.2478
      18228.7      35.1765
      18241.3      35.1135
      18253.8      35.0406
      18266.4      34.9773
      18278.9      34.9134
      18291.5      34.8431
      18304.0      34.7802
      18316.6      34.7087
      18329.1      34.6455
      18341.7      34.5787
      18354.2      34.5100
      18366.8      34.4462
      18379.3      34.3755
      18391.9      34.3104
      18404.4      34.2462
      18416.9      34.1792
      18429.5      34.1190
      18442.0      34.0530
      18454.6      33.9890
      18467.1      33.9225
      18479.7      33.8647
      18492.2      33.7966
      18504.8      33.7308
      18517.3      33.6715
      18529.9      33.6052
      18542.4      33.5381
      18555.0      33.4772
      18567.5      33.4104
      18580.1      33.3515
      18592.6      33.2829
      18605.2      33.2191
      18617.7      33.1618
      18630.3      33.1018
      18642.8      33.0329
      18655.3      32.9756
      18667.9      32.9163
      18680.4      32.8530
      18693.0      32.7916
      18705.5      32.7302
      18718.1      32.6688
      18730.6      32.6092
      18743.2      32.5440
      18755.7      32.4837
      18768.3      32.4234
      18780.8      32.3642
      18793.4      32.2972
      18805.9      32.2421
      18818.5      32.1797
      18831.0      32.1218
      18843.6      32.0642
      18856.1      32.0014
      18868.7      31.9458
      18881.2      31.8826
      18893.7      31.8284
      18906.3      31.7629
      18918.8      31.7075
      18931.4      31.6496
      18943.9      31.5889
      18956.5      31.5313
      18969.0      31.4698
      18981.6      31.4101
      18994.1      31.3500
      19006.7      31.2954
      19019.2      31.2395
      19031.8      31.1770
      19044.3      31.1269
      19056.9      31.0654
      19069.4      31.0097
      19082.0      30.9528
      19094.5      30.8960
      19107.0      30.8410
      19119.6      30.7827
      19132.1      30.7230
      19144.7      30.6685
      19157.2      30.6137
      19169.8      30.5501
      19182.3      30.4978
      19194.9      30.4418
      19207.4      30.3849
      19220.0      30.3307
      19232.5      30.2778
      19245.1      30.2214
      19257.6      30.1667
      19270.2      30.1133
      19282.7      30.0546
      19295.3      30.0061
      19307.8      29.9453
      19320.4      29.8962
      19332.9      29.8373
      19345.4      29.7832
      19358.0      29.7301
      19370.5      29.6750
      19383.1      29.6212
      19395.6      29.5631
      19408.2      29.5140
      19420.7      29.4617
      19433.3      29.4053
      19445.8      29.3524
      19458.4      29.3032
      19470.9      29.2492
      19483.5      29.1960
      19496.0      29.1447
      19508.6      29.0927
      19521.1      29.0379
      19533.7      28.9844
      19546.2      28.9328
      19558.7      28.8811
      19571.3      28.8282
      19583.8      28.7757
      19596.4      28.7219
      19608.9      28.6716
      19621.5      28.6229
      19634.0      28.5682
      19646.6      28.5197
      19659.1      28.4683
      19671.7      28.4198
      19684.2      28.3673
      19696.8      28.3190
      19709.3      28.2665
      19721.9      28.2166
      19734.4      28.1674
      19747.0      28.1122
      19759.5      28.0655
      19772.1      28.0134
      19784.6      27.9657
      19797.1      27.9142
      19809.7      27.8627
      19822.2      27.8156
      19834.8      27.7684
      19847.3      27.7177
      19859.9      27.6674
      19872.4      27.6195
      19885.0      27.5708
      19897.5      27.5212
      19910.1      27.4768
      19922.6      27.4239
      19935.2      27.3745
      19947.7      27.3271
      19960.3      27.2787
      19972.8      27.2280
      19985.4      27.1803
      19997.9      27.1333
      20010.5      27.0834
      20023.0      27.0366
      20035.5      26.9935
      20048.1      26.9423
      20060.6      26.8975
      20073.2      26.8494
      20085.7      26.8027
      20098.3      26.7557
      20110.8      26.7075
      20123.4      26.6617
      20135.9      26.6164
      20148.5      26.5676
      20161.0      26.5205
      20173.6      26.4761
      20186.1      26.4255
      20198.7      26.3791
      20211.2      26.3376
      20223.8      26.2884
      20236.3      26.2431
      20248.8      26.2001
      20261.4      26.1514
      20273.9      26.1082
      20286.5      26.0623
      20299.0      26.0202
      20311.6      25.9708
      20324.1      25.9251
      20336.7      25.8831
      20349.2      25.8370
      20361.8      25.7895
      20374.3      25.7455
      20386.9      25.7009
      20399.4      25.6561
      20412.0      25.6127
      20424.5      25.5667
      20437.1      25.5250
      20449.6      25.4811
      20462.1      25.4385
      20474.7      25.3923
      20487.2      25.3498
      20499.8      25.3065
      20512.3      25.2629
      20524.9      25.2177
      20537.4      25.1739
      20550.0      25.1323
      20562.5      25.0893
      20575.1      25.0435
      20587.6      24.9999
      20600.2      24.9602
      20612.7      24.9124
      20625.3      24.8727
      20637.8      24.8314
      20650.4      24.7903
      20662.9      24.7480
      20675.5      24.7034
      20688.0      24.6618
      20700.5      24.6225
      20713.1      24.5790
      20725.6      24.5360
      20738.2      24.4926
      20750.7      24.4504
      20763.3      24.4099
      20775.8      24.3697
      20788.4      24.3272
      20800.9      24.2823
      20813.5      24.2434
      20826.0      24.2032
      20838.6      24.1609
      20851.1      24.1230
      20863.7      24.0797
      20876.2      24.0411
      20888.8      24.0008
      20901.3      23.9603
      20913.9      23.9169
      20926.4      23.8802
      20938.9      23.8353
      20951.5      23.7971
      20964.0      23.7584
      20976.6      23.7174
      20989.1      23.6761
      21001.7      23.6340
      21014.2      23.5947
      21026.8      23.5580
      21039.3      23.5155
      21051.9      23.4799
      21064.4      23.4398
      21077.0      23.3988
      21089.5      23.3607
      21102.1      23.3234
      21114.6      23.2831
      21127.2      23.2421
      21139.7      23.2041
      21152.3      23.1668
      21164.8      23.1264
      21177.3      23.0872
      21189.9      23.0486
      21202.4      23.0068
      21215.0      22.9716
      21227.5      22.9341
      21240.1      22.8974
      21252.6      22.8562
      21265.2      22.8197
      21277.7      22.7820
      21290.3      22.7437
      21302.8      22.7088
      21315.4      22.6674
      21327.9      22.6312
      21340.5      22.5947
      21353.0      22.5536
      21365.6      22.5166
      21378.1      22.4794
      21390.6      22.4441
      21403.2      22.4038
      21415.7      22.3670
      21428.3      22.3326
      21440.8      22.2966
      21453.4      22.2586
      21465.9      22.2213
      21478.5      22.1845
      21491.0      22.1483
      21503.6      22.1149
      21516.1      22.0743
      21528.7      22.0400
      21541.2      22.0042
      21553.8      21.9678
      21566.3      21.9302
      21578.9      21.8925
      21591.4      21.8569
      21604.0      21.8224
      21616.5      21.7849
      21629.0      21.7518
      21641.6      21.7144
      21654.1      21.6802
      21666.7      21.6465
      21679.2      21.6098
      21691.8      21.5727
      21704.3      21.5396
      21716.9      21.5037
      21729.4      21.4680
      21742.0      21.4341
      21754.5      21.3975
      21767.1      21.3639
      21779.6      21.3271
      21792.2      21.2915
      21804.7      21.2583
      21817.3      21.2247
      21829.8      21.1896
      21842.4      21.1555
      21854.9      21.1204
      21867.4      21.0896
      21880.0      21.0525
      21892.5      21.0192
      21905.1      20.9851
      21917.6      20.9498
      21930.2      20.9185
      21942.7      20.8827
      21955.3      20.8493
      21967.8      20.8139
      21980.4      20.7821
      21992.9      20.7470
      22005.5      20.7132
      22018.0      20.6810
      22030.6      20.6467
      22043.1      20.6140
      22055.7      20.5818
      22068.2      20.5491
      22080.7      20.5169
      22093.3      20.4835
      22105.8      20.4517
      22118.4      20.4164
      22130.9      20.3860
      22143.5      20.3499
      22156.0      20.3198
      22168.6      20.2843
      22181.1      20.2550
      22193.7      20.2184
      22206.2      20.1881
      22218.8      20.1569
      22231.3      20.1231
      22243.9      20.0944
      22256.4      20.0608
      22269.0      20.0289
      22281.5      19.9957
      22294.1      19.9647
      22306.6      19.9333
      22319.1      19.9007
      22331.7      19.8717
      22344.2      19.8385
      22356.8      19.8057
      22369.3      19.7746
      22381.9      19.7417
      22394.4      19.7122
      22407.0      19.6787
      22419.5      19.6489
      22432.1      19.6194
      22444.6      19.5865
      22457.2      19.5592
      22469.7      19.5259
      22482.3      19.4938
      22494.8      19.4654
      22507.4      19.4328
      22519.9      19.4028
      22532.5      19.3733
      22545.0      19.3402
      22557.5      19.3105
      22570.1      19.2785
      22582.6      19.2508
      22595.2      19.2170
      22607.7      19.1885
      22620.3      19.1589
      22632.8      19.1304
      22645.4      19.0980
      22657.9      19.0674
      22670.5      19.0402
      22683.0      19.0107
      22695.6      18.9809
      22708.1      18.9494
      22720.7      18.9217
      22733.2      18.8890
      22745.8      18.8608
      22758.3      18.8330
      22770.8      18.8010
      22783.4      18.7724
      22795.9      18.7424
      22808.5      18.7144
      22821.0      18.6846
      22833.6      18.6545
      22846.1      18.6255
      22858.7      18.5983
      22871.2      18.5700
      22883.8      18.5402
      22896.3      18.5109
      22908.9      18.4833
      22921.4      18.4562
      22934.0      18.4249
      22946.5      18.3970
      22959.1      18.3669
      22971.6      18.3396
      22984.2      18.3105
      22996.7      18.2829
      23009.2      18.2538
      23021.8      18.2248
      23034.3      18.1974
      23046.9      18.1701
      23059.4      18.1412
      23072.0      18.1154
      23084.5      18.0867
      23097.1      18.0586
      23109.6      18.0303
      23122.2      18.0049
      23134.7      17.9741
      23147.3      17.9470
      23159.8      17.9212
      23172.4      17.8900
      23184.9      17.8649
      23197.5      17.8373
      23210.0      17.8080
      23222.5      17.7811
      23235.1      17.7564
      23247.6      17.7293
      23260.2      17.7001
      23272.7      17.6741
      23285.3      17.6474
      23297.8      17.6204
      23310.4      17.5929
      23322.9      17.5668
      23335.5      17.5408
      23348.0      17.5109
      23360.6      17.4852
      23373.1      17.4604
      23385.7      17.4311
      23398.2      17.4053
      23410.8      17.3795
      23423.3      17.3518
      23435.8      17.3277
      23448.4      17.2999
      23460.9      17.2737
      23473.5      17.2494
      23486.0      17.2207
      23498.6      17.1960
      23511.1      17.1698
      23523.7      17.1438
      23536.2      17.1193
      23548.8      17.0903
      23561.3      17.0648
      23573.9      17.0396
      23586.4      17.0135
      23599.0      16.9885
      23611.5      16.9615
      23624.1      16.9378
      23636.6      16.9116
      23649.2      16.8860
      23661.7      16.8600
      23674.2      16.8368
      23686.8      16.8108
      23699.3      16.7860
      23711.9      16.7595
      23724.4      16.7345
      23737.0      16.7087
      23749.5      16.6850
      23762.1      16.6594
      23774.6      16.6320
      23787.2      16.6103
      23799.7      16.5819
      23812.3      16.5595
      23824.8      16.5344
      23837.4      16.5104
      23849.9      16.4845
      23862.5      16.4607
      23875.0      16.4358
      23887.6      16.4136
      23900.1      16.3869
      23912.6      16.3634
      23925.2      16.3378
      23937.7      16.3134
      23950.3      16.2916
      23962.8      16.2642
      23975.4      16.2393
      23987.9      16.2161
      24000.5      16.1929
      24013.0      16.1694
      24025.6      16.1435
      24038.1      16.1216
      24050.7      16.0960
      24063.2      16.0726
      24075.8      16.0511
      24088.3      16.0242
      24100.9      16.0030
      24113.4      15.9785
      24126.0      15.9546
      24138.5      15.9305
      24151.0      15.9081
      24163.6      15.8836
      24176.1      15.8599
      24188.7      15.8362
      24201.2      15.8128
      24213.8      15.7903
      24226.3      15.7651
      24238.9      15.7441
      24251.4      15.7201
      24264.0      15.6985
      24276.5      15.6757
      24289.1      15.6513
      24301.6      15.6269
      24314.2      15.6075
      24326.7      15.5812
      24339.3      15.5608
      24351.8      15.5381
      24364.4      15.5126
      24376.9      15.4898
      24389.4      15.4687
      24402.0      15.4455
      24414.5      15.4223
      24427.1      15.3997
      24439.6      15.3783
      24452.2      15.3573
      24464.7      15.3339
      24477.3      15.3109
      24489.8      15.2888
      24502.4      15.2665
      24514.9      15.2460
      24527.5      15.2217
      24540.0      15.1999
      24552.6      15.1779
      24565.1      15.1551
      24577.7      15.1328
      24590.2      15.1125
      24602.7      15.0870
      24615.3      15.0675
      24627.8      15.0447
      24640.4      15.0248
      24652.9      15.0017
      24665.5      14.9811
      24678.0      14.9591
      24690.6      14.9382
      24703.1      14.9158
      24715.7      14.8942
      24728.2      14.8733
      24740.8      14.8512
      24753.3      14.8296
      24765.9      14.8080
      24778.4      14.7864
      24791.0      14.7648
      24803.5      14.7434
      24816.0      14.7223
      24828.6      14.7007
      24841.1      14.6813
      24853.7      14.6588
      24866.2      14.6394
      24878.8      14.6184
      24891.3      14.5966
      24903.9      14.5754
      24916.4      14.5551
      24929.0      14.5327
      24941.5      14.5142
      24954.1      14.4905
      24966.6      14.4720
      24979.2      14.4508
      24991.7      14.4291
      25004.3      14.4079
      25016.8      14.3862
      25029.4      14.3692
      25041.9      14.3478
      25054.4      14.3251
      25067.0      14.3077
      25079.5      14.2858
      25092.1      14.2670
      25104.6      14.2448
      25117.2      14.2260
      25129.7      14.2038
      25142.3      14.1859
      25154.8      14.1632
      25167.4      14.1438
      25179.9      14.1234
      25192.5      14.1040
      25205.0      14.0836
      25217.6      14.0630
      25230.1      14.0444
      25242.7      14.0248
      25255.2      14.0043
      25267.8      13.9836
      25280.3      13.9657
      25292.8      13.9455
      25305.4      13.9250
      25317.9      13.9056
      25330.5      13.8872
      25343.0      13.8675
      25355.6      13.8461
      25368.1      13.8260
      25380.7      13.8085
      25393.2      13.7882
      25405.8      13.7671
      25418.3      13.7505
      25430.9      13.7297
      25443.4      13.7111
      25456.0      13.6919
      25468.5      13.6711
      25481.1      13.6535
      25493.6      13.6345
      25506.1      13.6155
      25518.7      13.5969
      25531.2      13.5755
      25543.8      13.5579
      25556.3      13.5396
      25568.9      13.5184
      25581.4      13.5006
      25594.0      13.4864
