# spectrum  Type     U-V    B-V    V-R    V-I    V-J    V-K
# ---------------------------------------------------------
# bpgs_14  A0V     -0.04  -0.04   0.02   0.04  -0.04  -0.06
#
# lambda (Angstroms)  flux (phot/lambda)
#----------------------------------------------------------
PHOTLAM
      512.023  4.58895e-11
      524.570  1.28748e-10
      537.117  2.46997e-10
      549.664  5.85099e-10
      562.212  1.07341e-09
      574.759  2.31826e-09
      587.306  4.23323e-09
      599.853  8.63570e-09
      612.401  1.49831e-08
      624.948  2.96466e-08
      637.495  4.72588e-08
      650.042  9.21655e-08
      662.590  1.46475e-07
      675.137  2.45547e-07
      687.684  4.28008e-07
      700.231  6.14959e-07
      712.779  1.02271e-06
      725.326  1.57160e-06
      737.873  2.32106e-06
      750.420  3.76279e-06
      762.968  5.26303e-06
      775.515  7.97324e-06
      788.062  1.22101e-05
      800.609  1.64520e-05
      813.157  2.27428e-05
      825.704  3.40139e-05
      838.251  4.55093e-05
      850.798  5.96435e-05
      863.346  8.61627e-05
      875.893  0.000114263
      888.440  0.000355985
      900.987   0.00282114
      913.535   0.00587621
      926.082    0.0157738
      938.629    0.0333181
      951.177    0.0545492
      963.724    0.0986619
      976.271     0.221748
      988.818     0.326217
      1001.37     0.340514
      1013.91     0.352297
      1026.46     0.382141
      1039.01     0.511365
      1051.55     0.965837
      1064.10      1.37529
      1076.65      1.55469
      1089.20      15.6629
      1101.74      73.7995
      1114.29      123.741
      1126.84      132.566
      1139.39      133.968
      1151.93      135.980
      1164.48      126.145
      1177.03      95.8502
      1189.57      61.6886
      1202.12      31.2034
      1214.67      17.1855
      1227.22      38.2062
      1239.76      88.0133
      1252.31      159.803
      1264.86      234.996
      1277.41      306.696
      1289.95      334.735
      1302.50      346.343
      1315.05      355.175
      1327.59      377.122
      1340.14      404.952
      1352.69      415.084
      1365.24      417.614
      1377.78      416.936
      1390.33      462.178
      1402.88      514.250
      1415.42      545.566
      1427.97      559.498
      1440.52      568.689
      1453.07      604.101
      1465.61      607.359
      1478.16      574.718
      1490.71      634.267
      1503.26      685.636
      1515.80      655.845
      1528.35      661.289
      1540.90      682.087
      1553.44      676.386
      1565.99      683.475
      1578.54      704.337
      1591.09      687.411
      1603.63      661.599
      1616.18      637.706
      1628.73      615.168
      1641.28      598.049
      1653.82      600.507
      1666.37      610.242
      1678.92      624.226
      1691.46      631.540
      1704.01      629.898
      1716.56      615.008
      1729.11      625.375
      1741.65      642.009
      1754.20      639.895
      1766.75      645.476
      1779.30      657.403
      1791.84      655.605
      1804.39      645.236
      1816.94      625.537
      1829.48      618.634
      1842.03      619.419
      1854.58      628.313
      1867.13      631.821
      1879.67      630.389
      1892.22      627.081
      1904.77      625.720
      1917.32      627.811
      1929.86      627.699
      1942.41      625.409
      1954.96      619.013
      1967.50      608.137
      1980.05      594.213
      1992.60      579.508
      2005.15      567.490
      2017.69      559.849
      2030.24      559.094
      2042.79      557.328
      2055.33      546.911
      2067.88      549.229
      2080.43      557.308
      2092.98      551.839
      2105.52      547.024
      2118.07      544.088
      2130.62      523.207
      2143.17      507.259
      2155.71      516.461
      2168.26      516.290
      2180.81      511.685
      2193.35      514.387
      2205.90      512.037
      2218.45      503.121
      2231.00      496.661
      2243.54      492.152
      2256.09      490.634
      2268.64      495.884
      2281.19      502.989
      2293.73      503.523
      2306.28      496.995
      2318.83      484.203
      2331.37      472.939
      2343.92      462.975
      2356.47      454.902
      2369.02      447.229
      2381.56      440.571
      2394.11      437.197
      2406.66      443.054
      2419.20      456.712
      2431.75      468.801
      2444.30      480.377
      2456.85      490.931
      2469.39      486.815
      2481.94      481.535
      2494.49      492.905
      2507.04      489.608
      2519.58      473.402
      2532.13      457.062
      2544.68      458.344
      2557.22      487.424
      2569.77      503.801
      2582.32      508.480
      2594.87      492.589
      2607.41      484.197
      2619.96      485.619
      2632.51      507.371
      2645.06      523.363
      2657.60      525.978
      2670.15      528.448
      2682.70      529.405
      2695.24      526.146
      2707.79      526.255
      2720.34      526.366
      2732.89      513.990
      2745.43      506.159
      2757.98      506.035
      2770.53      498.227
      2783.07      488.470
      2795.62      480.268
      2808.17      492.918
      2820.72      516.180
      2833.26      532.090
      2845.81      534.890
      2858.36      524.083
      2870.91      519.217
      2883.45      519.580
      2896.00      528.181
      2908.55      538.889
      2921.09      547.004
      2933.64      539.842
      2946.19      538.230
      2958.74      543.919
      2971.28      546.893
      2983.83      550.138
      2996.38      555.396
      3008.93      564.015
      3021.47      572.326
      3034.02      573.381
      3046.57      570.158
      3059.11      564.979
      3071.66      570.047
      3084.21      575.649
      3096.76      577.969
      3109.30      578.194
      3121.85      578.604
      3134.40      582.578
      3146.95      587.456
      3159.49      592.110
      3172.04      592.377
      3184.59      592.442
      3197.13      593.711
      3209.68      596.577
      3222.23      597.858
      3234.78      592.584
      3247.32      609.229
      3259.87      636.809
      3272.42      632.271
      3284.97      633.140
      3297.51      649.426
      3310.06      630.368
      3322.61      604.633
      3335.15      604.026
      3347.70      598.155
      3360.25      605.343
      3372.80      583.912
      3385.34      601.170
      3397.89      614.204
      3410.44      604.299
      3422.98      615.233
      3435.53      590.935
      3448.08      584.720
      3460.63      583.258
      3473.17      566.616
      3485.72      566.141
      3498.27      562.519
      3510.82      565.416
      3523.36      575.815
      3535.91      580.085
      3548.46      572.815
      3561.00      576.796
      3573.55      566.272
      3586.10      571.117
      3598.65      568.481
      3611.19      565.090
      3623.74      559.412
      3636.29      558.741
      3648.84      563.141
      3661.38      561.299
      3673.93      553.293
      3686.48      557.197
      3699.02      565.383
      3711.57      616.507
      3724.12      674.872
      3736.67      723.236
      3749.21      811.543
      3761.76      879.283
      3774.31      1006.79
      3786.86      1114.81
      3799.40      1064.92
      3811.95      1358.05
      3824.50      1259.23
      3837.04      1053.31
      3849.59      1442.86
      3862.14      1668.48
      3874.69      1469.19
      3887.23      1079.55
      3899.78      1327.80
      3912.33      1699.65
      3924.87      1767.39
      3937.42      1738.39
      3949.97      1664.26
      3962.52      1238.13
      3975.06      1190.90
      3987.61      1656.52
      4000.16      1823.51
      4012.71      1837.74
      4025.25      1818.37
      4037.80      1825.55
      4050.35      1818.18
      4062.89      1797.06
      4075.44      1701.92
      4087.99      1379.15
      4100.54      1051.66
      4113.08      1307.26
      4125.63      1642.97
      4138.18      1735.70
      4150.73      1756.46
      4163.27      1739.10
      4175.82      1713.18
      4188.37      1734.34
      4200.91      1753.08
      4213.46      1749.65
      4226.01      1726.25
      4238.56      1720.81
      4251.10      1703.06
      4263.65      1705.53
      4276.20      1692.66
      4288.74      1667.68
      4301.29      1623.20
      4313.84      1526.68
      4326.39      1190.95
      4338.93      911.312
      4351.48      1176.62
      4364.03      1516.28
      4376.58      1588.29
      4389.12      1575.05
      4401.67      1583.30
      4414.22      1572.44
      4426.76      1577.86
      4439.31      1568.99
      4451.86      1543.87
      4464.41      1510.89
      4476.95      1454.58
      4489.50      1455.91
      4502.05      1467.88
      4514.60      1474.98
      4527.14      1474.67
      4539.69      1457.62
      4552.24      1436.73
      4564.78      1434.75
      4577.33      1435.43
      4589.88      1430.92
      4602.43      1430.37
      4614.97      1420.62
      4627.52      1406.69
      4640.07      1401.88
      4652.62      1390.12
      4665.16      1369.64
      4677.71      1392.67
      4690.26      1383.51
      4702.81      1380.73
      4715.35      1378.36
      4727.90      1363.09
      4740.45      1360.87
      4752.99      1361.00
      4765.54      1346.40
      4778.09      1342.34
      4790.64      1332.60
      4803.18      1314.50
      4815.73      1293.99
      4828.28      1255.16
      4840.82      1131.49
      4853.37      854.018
      4865.92      825.911
      4878.47      1074.12
      4891.01      1214.22
      4903.56      1257.66
      4916.11      1257.40
      4928.66      1253.03
      4941.20      1272.37
      4953.75      1261.69
      4966.30      1249.59
      4978.84      1227.35
      4991.39      1218.64
      5003.94      1209.48
      5016.49      1200.54
      5029.03      1196.66
      5041.58      1183.88
      5054.13      1177.15
      5066.67      1170.16
      5079.22      1158.40
      5091.77      1143.95
      5104.32      1140.34
      5116.86      1133.89
      5129.41      1120.84
      5141.96      1128.58
      5154.51      1129.58
      5167.05      1122.00
      5179.60      1109.28
      5192.15      1107.13
      5204.69      1107.56
      5217.24      1099.04
      5229.79      1084.92
      5242.34      1082.99
      5254.88      1083.01
      5267.43      1074.85
      5279.98      1069.61
      5292.53      1077.88
      5305.07      1066.10
      5317.62      1054.52
      5330.17      1051.84
      5342.71      1058.44
      5355.26      1055.78
      5367.81      1040.00
      5380.36      1039.44
      5392.90      1037.18
      5405.45      1028.92
      5418.00      1023.47
      5430.55      1020.75
      5443.09      1009.39
      5455.64      996.194
      5468.19      986.626
      5480.73      991.441
      5493.28      988.656
      5505.83      976.591
      5518.38      971.559
      5530.92      974.449
      5543.47      972.779
      5556.02      973.970
      5568.57      974.500
      5581.11      967.344
      5593.66      969.679
      5606.21      965.651
      5618.75      965.359
      5631.30      960.583
      5643.85      955.740
      5656.40      951.292
      5668.94      946.867
      5681.49      942.488
      5694.04      938.158
      5706.58      933.839
      5719.13      929.493
      5731.68      925.221
      5744.23      922.155
      5756.77      921.288
      5769.32      922.768
      5781.87      923.864
      5794.41      920.333
      5806.96      916.560
      5819.51      912.982
      5832.06      909.094
      5844.60      903.029
      5857.15      893.543
      5869.70      884.082
      5882.25      877.188
      5894.79      878.012
      5907.34      879.452
      5919.89      880.147
      5932.44      876.318
      5944.98      871.408
      5957.53      866.241
      5970.08      863.134
      5982.62      860.323
      5995.17      856.413
      6007.72      851.012
      6020.27      844.418
      6032.81      836.301
      6045.36      833.543
      6057.91      837.797
      6070.45      839.112
      6083.00      838.622
      6095.55      836.063
      6108.10      832.727
      6120.64      828.439
      6133.19      821.131
      6145.74      815.015
      6158.29      810.587
      6170.83      806.119
      6183.38      801.676
      6195.93      797.581
      6208.47      796.758
      6221.02      797.718
      6233.57      798.603
      6246.12      794.838
      6258.66      786.107
      6271.21      777.477
      6283.76      770.654
      6296.30      767.408
      6308.85      764.734
      6321.40      761.740
      6333.95      757.085
      6346.49      752.938
      6359.04      749.676
      6371.59      747.994
      6384.14      747.295
      6396.68      747.548
      6409.23      740.190
      6421.78      730.308
      6434.32      723.174
      6446.87      717.793
      6459.42      713.776
      6471.97      710.398
      6484.51      710.190
      6497.06      714.288
      6509.61      707.004
      6522.16      682.948
      6534.70      621.948
      6547.25      581.519
      6559.80      567.947
      6572.34      606.834
      6584.89      650.551
      6597.44      685.258
      6609.99      699.152
      6622.53      702.467
      6635.08      697.431
      6647.63      692.698
      6660.18      688.414
      6672.72      683.563
      6685.27      680.905
      6697.82      681.062
      6710.36      679.822
      6722.91      677.925
      6735.46      675.761
      6748.01      674.308
      6760.55      672.078
      6773.10      663.800
      6785.65      660.562
      6798.20      664.262
      6810.74      666.239
      6823.29      668.625
      6835.84      672.443
      6848.38      662.226
      6860.93      646.559
      6873.48      641.512
      6886.03      641.378
      6898.57      644.752
      6911.12      645.684
      6923.67      642.976
      6936.21      634.330
      6948.76      632.778
      6961.31      632.457
      6973.86      622.708
      6986.40      618.819
      6998.95      621.223
      7011.50      621.104
      7024.05      619.928
      7036.59      618.133
      7049.14      617.249
      7061.69      616.889
      7074.23      616.641
      7086.78      614.165
      7099.33      609.800
      7111.88      605.663
      7124.42      601.449
      7136.97      597.252
      7149.52      595.828
      7162.07      596.453
      7174.61      600.133
      7187.16      598.103
      7199.71      591.612
      7212.25      586.413
      7224.80      581.804
      7237.35      577.765
      7249.90      575.835
      7262.44      573.273
      7274.99      566.607
      7287.54      565.159
      7300.09      567.496
      7312.63      569.238
      7325.18      568.514
      7337.73      564.758
      7350.27      562.947
      7362.82      561.313
      7375.37      558.582
      7387.92      559.488
      7400.46      561.617
      7413.01      557.697
      7425.56      554.792
      7438.11      554.117
      7450.65      551.277
      7463.20      548.296
      7475.75      546.354
      7488.29      544.097
      7500.84      542.576
      7513.39      545.434
      7525.94      551.219
      7538.48      559.167
      7551.03      563.620
      7563.58      559.911
      7576.12      540.449
      7588.67      496.822
      7601.22      462.741
      7613.77      513.972
      7626.31      537.854
      7638.86      525.594
      7651.41      523.466
      7663.96      511.851
      7676.50      479.137
      7689.05      481.062
      7701.60      496.461
      7714.15      500.452
      7726.69      501.652
      7739.24      501.676
      7751.79      502.722
      7764.33      502.366
      7776.88      499.606
      7789.43      502.065
      7801.98      504.715
      7814.52      500.847
      7827.07      498.410
      7839.62      496.294
      7852.16      486.132
      7864.71      477.072
      7877.26      472.370
      7889.81      470.360
      7902.35      469.314
      7914.90      468.264
      7927.45      469.116
      7939.99      471.753
      7952.54      476.344
      7965.09      476.853
      7977.64      471.063
      7990.18      463.344
      8002.73      456.673
      8015.28      454.559
      8027.83      456.287
      8040.37      460.710
      8052.92      466.762
      8065.47      468.258
      8078.02      463.462
      8090.56      456.291
      8103.11      453.477
      8115.66      462.437
      8128.20      465.325
      8140.75      462.506
      8153.30      452.227
      8165.85      446.300
      8178.39      446.894
      8190.94      452.188
      8203.49      453.699
      8216.03      444.448
      8228.58      436.298
      8241.13      432.598
      8253.68      442.986
      8266.22      448.738
      8278.77      447.486
      8291.32      441.938
      8303.86      439.986
      8316.41      446.513
      8328.96      444.698
      8341.51      436.860
      8354.05      422.608
      8366.60      420.870
      8379.15      431.309
      8391.70      443.021
      8404.24      445.585
      8416.79      432.731
      8429.34      433.530
      8441.88      436.443
      8454.43      426.199
      8466.98      425.706
      8479.53      432.792
      8492.07      429.772
      8504.62      427.294
      8517.17      428.757
      8529.72      426.702
      8542.26      426.520
      8554.81      435.754
      8567.36      427.464
      8579.90      409.241
      8592.45      412.130
      8605.00      417.661
      8617.55      420.793
      8630.09      417.868
      8642.64      409.630
      8655.19      393.657
      8667.73      404.897
      8680.28      430.733
      8692.83      436.615
      8705.38      432.547
      8717.92      419.321
      8730.47      397.182
      8743.02      384.645
      8755.57      401.939
      8768.11      422.658
      8780.66      442.759
      8793.21      456.021
      8805.76      458.092
      8818.30      446.649
      8830.85      419.054
      8843.40      390.339
      8855.94      370.502
      8868.49      382.078
      8881.04      410.176
      8893.59      435.297
      8906.13      448.335
      8918.68      449.145
      8931.23      449.610
      8943.78      440.894
      8956.32      414.909
      8968.87      399.300
      8981.42      385.304
      8993.96      357.337
      9006.51      344.679
      9019.06      351.734
      9031.61      387.373
      9044.15      414.597
      9056.70      414.893
      9069.25      408.622
      9081.80      404.756
      9094.34      416.971
      9106.89      422.688
      9119.44      421.446
      9131.98      419.954
      9144.53      421.402
      9157.08      426.786
      9169.63      422.103
      9182.17      411.903
      9194.72      397.527
      9207.27      368.382
      9219.81      335.506
      9232.36      343.596
      9244.91      360.435
      9257.46      378.272
      9270.00      396.511
      9282.55      409.123
      9295.10      406.421
      9307.65      404.713
      9320.19      403.921
      9332.74      399.611
      9345.29      393.124
      9357.83      384.745
      9370.38      377.771
      9382.93      378.141
      9395.48      394.100
      9408.02      378.348
      9420.57      346.558
      9433.12      334.793
      9445.66      343.752
      9458.21      371.528
      9470.76      380.153
      9483.31      377.712
      9495.85      363.964
      9508.40      347.637
      9520.95      329.407
      9533.50      308.388
      9546.04      301.094
      9558.59      311.410
      9571.14      341.337
      9583.69      362.403
      9596.23      355.486
      9608.78      353.526
      9621.33      355.703
      9633.87      360.723
      9646.42      361.858
      9658.97      359.231
      9671.52      359.306
      9684.06      358.396
      9696.61      354.675
      9709.16      352.136
      9721.71      353.303
      9734.25      364.435
      9746.80      365.514
      9759.35      358.421
      9771.89      360.539
      9784.44      360.521
      9796.99      354.054
      9809.53      353.757
      9822.08      355.583
      9834.63      355.294
      9847.18      352.273
      9859.72      348.600
      9872.27      352.878
      9884.82      353.574
      9897.37      346.844
      9909.91      342.445
      9922.46      340.124
      9935.01      340.952
      9947.55      346.634
      9960.10      353.023
      9972.65      346.512
      9985.20      342.931
      9997.74      343.869
      10010.3      319.399
      10022.8      291.713
      10035.4      278.750
      10047.9      281.491
      10060.5      294.333
      10073.0      309.733
      10085.6      323.131
      10098.1      332.773
      10110.7      333.822
      10123.2      331.151
      10135.8      326.465
      10148.3      325.997
      10160.9      329.480
      10173.4      338.402
      10186.0      337.056
      10198.5      324.819
      10211.0      322.605
      10223.6      326.972
      10236.1      338.268
      10248.7      341.219
      10261.2      339.561
      10273.8      337.631
      10286.3      333.509
      10298.9      326.654
      10311.4      315.731
      10324.0      309.410
      10336.5      313.338
      10349.1      319.879
      10361.6      323.994
      10374.2      316.711
      10386.7      313.466
      10399.3      314.358
      10411.8      310.850
      10424.4      307.426
      10436.9      305.274
      10449.4      296.251
      10462.0      287.045
      10474.5      286.741
      10487.1      291.193
      10499.6      297.923
      10512.2      300.089
      10524.7      297.751
      10537.3      291.315
      10549.8      298.405
      10562.4      306.044
      10574.9      300.297
      10587.5      294.333
      10600.0      289.789
      10612.6      288.366
      10625.1      287.541
      10637.7      286.760
      10650.2      285.954
      10662.7      285.126
      10675.3      284.339
      10687.8      283.509
      10700.4      282.720
      10712.9      281.885
      10725.5      281.113
      10738.0      280.276
      10750.6      279.470
      10763.1      278.669
      10775.7      277.865
      10788.2      277.072
      10800.8      276.231
      10813.3      275.437
      10825.9      274.597
      10838.4      273.781
      10851.0      272.961
      10863.5      272.151
      10876.1      271.314
      10888.6      270.509
      10901.1      269.685
      10913.7      268.875
      10926.2      268.040
      10938.8      267.230
      10951.3      266.393
      10963.9      265.582
      10976.4      264.761
      10989.0      263.944
      11001.5      263.132
      11014.1      262.294
      11026.6      261.493
      11039.2      260.673
      11051.7      259.837
      11064.3      259.047
      11076.8      258.204
      11089.4      257.400
      11101.9      256.588
      11114.4      255.750
      11127.0      254.950
      11139.5      254.118
      11152.1      253.314
      11164.6      252.493
      11177.2      251.661
      11189.7      250.864
      11202.3      250.047
      11214.8      249.224
      11227.4      248.432
      11239.9      247.620
      11252.5      246.815
      11265.0      246.021
      11277.6      245.214
      11290.1      244.386
      11302.7      243.607
      11315.2      242.793
      11327.8      241.987
      11340.3      241.174
      11352.8      240.384
      11365.4      239.578
      11377.9      238.765
      11390.5      237.960
      11403.0      237.158
      11415.6      236.375
      11428.1      235.616
      11440.7      234.819
      11453.2      234.045
      11465.8      233.260
      11478.3      232.471
      11490.9      231.698
      11503.4      230.913
      11516.0      230.150
      11528.5      229.349
      11541.1      228.582
      11553.6      227.785
      11566.1      227.023
      11578.7      226.238
      11591.2      225.451
      11603.8      224.696
      11616.3      223.931
      11628.9      223.179
      11641.4      222.445
      11654.0      221.683
      11666.5      220.949
      11679.1      220.190
      11691.6      219.440
      11704.2      218.686
      11716.7      217.933
      11729.3      217.192
      11741.8      216.449
      11754.4      215.693
      11766.9      214.947
      11779.5      214.193
      11792.0      213.455
      11804.5      212.705
      11817.1      212.014
      11829.6      211.284
      11842.2      210.577
      11854.7      209.856
      11867.3      209.159
      11879.8      208.449
      11892.4      207.723
      11904.9      207.020
      11917.5      206.302
      11930.0      205.595
      11942.6      204.889
      11955.1      204.169
      11967.7      203.461
      11980.2      202.744
      11992.8      202.034
      12005.3      201.336
      12017.9      200.686
      12030.4      199.998
      12042.9      199.335
      12055.5      198.664
      12068.0      198.002
      12080.6      197.328
      12093.1      196.657
      12105.7      195.989
      12118.2      195.312
      12130.8      194.657
      12143.3      193.982
      12155.9      193.307
      12168.4      192.653
      12181.0      191.968
      12193.5      191.314
      12206.1      190.653
      12218.6      190.029
      12231.2      189.411
      12243.7      188.791
      12256.2      188.167
      12268.8      187.541
      12281.3      186.917
      12293.9      186.296
      12306.4      185.669
      12319.0      185.052
      12331.5      184.422
      12344.1      183.802
      12356.6      183.175
      12369.2      182.560
      12381.7      181.930
      12394.3      181.305
      12406.8      180.775
      12419.4      180.294
      12431.9      179.821
      12444.5      179.356
      12457.0      178.883
      12469.6      178.413
      12482.1      177.944
      12494.6      177.468
      12507.2      176.997
      12519.7      176.532
      12532.3      176.063
      12544.8      175.582
      12557.4      175.114
      12569.9      174.647
      12582.5      174.173
      12595.0      173.706
      12607.6      172.963
      12620.1      172.089
      12632.7      171.172
      12645.2      170.278
      12657.8      169.392
      12670.3      168.483
      12682.9      167.578
      12695.4      166.695
      12708.0      165.791
      12720.5      164.887
      12733.0      163.997
      12745.6      163.103
      12758.1      162.202
      12770.7      161.294
      12783.2      160.407
      12795.8      159.535
      12808.3      159.223
      12820.9      159.229
      12833.4      159.261
      12846.0      159.276
      12858.5      159.298
      12871.1      159.317
      12883.6      159.344
      12896.2      159.358
      12908.7      159.367
      12921.3      159.403
      12933.8      159.414
      12946.3      159.447
      12958.9      159.453
      12971.4      159.482
      12984.0      159.495
      12996.5      159.509
      13009.1      159.298
      13021.6      158.997
      13034.2      158.693
      13046.7      158.389
      13059.3      158.073
      13071.8      157.773
      13084.4      157.462
      13096.9      157.162
      13109.5      156.853
      13122.0      156.547
      13134.6      156.237
      13147.1      155.942
      13159.7      155.623
      13172.2      155.324
      13184.7      155.018
      13197.3      154.709
      13209.8      154.338
      13222.4      153.964
      13234.9      153.589
      13247.5      153.214
      13260.0      152.822
      13272.6      152.443
      13285.1      152.063
      13297.7      151.686
      13310.2      151.304
      13322.8      150.924
      13335.3      150.544
      13347.9      150.163
      13360.4      149.782
      13373.0      149.406
      13385.5      149.019
      13398.0      148.650
      13410.6      148.300
      13423.1      147.950
      13435.7      147.612
      13448.2      147.271
      13460.8      146.935
      13473.3      146.585
      13485.9      146.249
      13498.4      145.901
      13511.0      145.566
      13523.5      145.224
      13536.1      144.889
      13548.6      144.541
      13561.2      144.205
      13573.7      143.856
      13586.3      143.524
      13598.8      143.175
      13611.4      142.841
      13623.9      142.513
      13636.4      142.176
      13649.0      141.846
      13661.5      141.512
      13674.1      141.185
      13686.6      140.841
      13699.2      140.514
      13711.7      140.183
      13724.3      139.841
      13736.8      139.516
      13749.4      139.188
      13761.9      138.850
      13774.5      138.514
      13787.0      138.194
      13799.6      137.853
      13812.1      137.561
      13824.7      137.272
      13837.2      136.973
      13849.7      136.699
      13862.3      136.392
      13874.8      136.112
      13887.4      135.820
      13899.9      135.526
      13912.5      135.235
      13925.0      134.957
      13937.6      134.657
      13950.1      134.367
      13962.7      134.075
      13975.2      133.791
      13987.8      133.493
      14000.3      133.203
      14012.9      132.900
      14025.4      132.582
      14038.0      132.269
      14050.5      131.960
      14063.1      131.645
      14075.6      131.345
      14088.1      131.025
      14100.7      130.715
      14113.2      130.400
      14125.8      130.093
      14138.3      129.787
      14150.9      129.467
      14163.4      129.168
      14176.0      128.841
      14188.5      128.539
      14201.1      128.224
      14213.6      127.898
      14226.2      127.588
      14238.7      127.260
      14251.3      126.930
      14263.8      126.616
      14276.4      126.300
      14288.9      125.970
      14301.5      125.643
      14314.0      125.332
      14326.5      125.006
      14339.1      124.681
      14351.6      124.364
      14364.2      124.041
      14376.7      123.714
      14389.3      123.402
      14401.8      123.089
      14414.4      122.844
      14426.9      122.596
      14439.5      122.360
      14452.0      122.118
      14464.6      121.868
      14477.1      121.631
      14489.7      121.391
      14502.2      121.142
      14514.8      120.902
      14527.3      120.665
      14539.8      120.414
      14552.4      120.177
      14564.9      119.928
      14577.5      119.686
      14590.0      119.449
      14602.6      119.201
      14615.1      118.955
      14627.7      118.698
      14640.2      118.447
      14652.8      118.201
      14665.3      117.944
      14677.9      117.696
      14690.4      117.440
      14703.0      117.194
      14715.5      116.947
      14728.1      116.693
      14740.6      116.443
      14753.2      116.186
      14765.7      115.943
      14778.2      115.686
      14790.8      115.434
      14803.3      115.188
      14815.9      114.921
      14828.4      114.665
      14841.0      114.410
      14853.5      114.142
      14866.1      113.888
      14878.6      113.624
      14891.2      113.374
      14903.7      113.110
      14916.3      112.849
      14928.8      112.591
      14941.4      112.330
      14953.9      112.078
      14966.5      111.819
      14979.0      111.551
      14991.6      111.299
      15004.1      111.043
      15016.6      110.813
      15029.2      110.581
      15041.7      110.353
      15054.3      110.112
      15066.8      109.880
      15079.4      109.658
      15091.9      109.421
      15104.5      109.184
      15117.0      108.955
      15129.6      108.722
      15142.1      108.494
      15154.7      108.252
      15167.2      108.029
      15179.8      107.794
      15192.3      107.563
      15204.9      107.328
      15217.4      107.083
      15229.9      106.848
      15242.5      106.611
      15255.0      106.368
      15267.6      106.129
      15280.1      105.885
      15292.7      105.656
      15305.2      105.404
      15317.8      105.177
      15330.3      104.927
      15342.9      104.695
      15355.4      104.452
      15368.0      104.207
      15380.5      103.978
      15393.1      103.731
      15405.6      103.516
      15418.2      103.308
      15430.7      103.113
      15443.3      102.912
      15455.8      102.713
      15468.3      102.516
      15480.9      102.313
      15493.4      102.122
      15506.0      101.918
      15518.5      101.711
      15531.1      101.521
      15543.6      101.320
      15556.2      101.117
      15568.7      100.920
      15581.3      100.718
      15593.8      100.522
      15606.4      100.345
      15618.9      100.185
      15631.5      100.032
      15644.0      99.8737
      15656.6      99.7172
      15669.1      99.5627
      15681.7      99.4026
      15694.2      99.2482
      15706.7      99.0883
      15719.3      98.9357
      15731.8      98.7789
      15744.4      98.6200
      15756.9      98.4667
      15769.5      98.3037
      15782.0      98.1547
      15794.6      97.9990
      15807.1      97.8630
      15819.7      97.7494
      15832.2      97.6419
      15844.8      97.5227
      15857.3      97.4168
      15869.9      97.2998
      15882.4      97.1897
      15895.0      97.0735
      15907.5      96.9669
      15920.0      96.8516
      15932.6      96.7427
      15945.1      96.6227
      15957.7      96.5148
      15970.2      96.4055
      15982.8      96.2899
      15995.3      96.1806
      16007.9      96.0868
      16020.4      96.0017
      16033.0      95.9316
      16045.5      95.8479
      16058.1      95.7741
      16070.6      95.6916
      16083.2      95.6128
      16095.7      95.5316
      16108.3      95.4579
      16120.8      95.3737
      16133.3      95.3008
      16145.9      95.2214
      16158.4      95.1409
      16171.0      95.0589
      16183.5      94.9841
      16196.1      94.8926
      16208.6      94.7452
      16221.2      94.5501
      16233.7      94.3532
      16246.3      94.1600
      16258.8      93.9643
      16271.4      93.7655
      16283.9      93.5718
      16296.5      93.3764
      16309.0      93.1854
      16321.6      92.9848
      16334.1      92.7909
      16346.7      92.5964
      16359.2      92.4009
      16371.7      92.2026
      16384.3      92.0059
      16396.8      91.8167
      16409.4      91.5706
      16421.9      91.2967
      16434.5      91.0324
      16447.0      90.7775
      16459.6      90.5081
      16472.1      90.2499
      16484.7      89.9786
      16497.2      89.7078
      16509.8      89.4563
      16522.3      89.1762
      16534.9      88.9247
      16547.4      88.6557
      16560.0      88.3940
      16572.5      88.1167
      16585.1      87.8749
      16597.6      87.5917
      16610.1      87.3638
      16622.7      87.1255
      16635.2      86.8861
      16647.8      86.6588
      16660.3      86.4230
      16672.9      86.1987
      16685.4      85.9549
      16698.0      85.7300
      16710.5      85.4960
      16723.1      85.2615
      16735.6      85.0279
      16748.2      84.7871
      16760.7      84.5649
      16773.3      84.3320
      16785.8      84.0897
      16798.4      83.8822
      16810.9      83.8441
      16823.4      83.8501
      16836.0      83.8599
      16848.5      83.8653
      16861.1      83.8674
      16873.6      83.8917
      16886.2      83.8884
      16898.7      83.9000
      16911.3      83.9040
      16923.8      83.9236
      16936.4      83.9230
      16948.9      83.9339
      16961.5      83.9542
      16974.0      83.9444
      16986.6      83.9620
      16999.1      83.9249
      17011.7      83.6847
      17024.2      83.3804
      17036.8      83.0621
      17049.3      82.7517
      17061.8      82.4532
      17074.4      82.1313
      17086.9      81.8329
      17099.5      81.5253
      17112.0      81.2099
      17124.6      80.8957
      17137.1      80.5906
      17149.7      80.2844
      17162.2      79.9768
      17174.8      79.6628
      17187.3      79.3555
      17199.9      79.0663
      17212.4      78.8577
      17225.0      78.6794
      17237.5      78.4893
      17250.1      78.3113
      17262.6      78.1358
      17275.1      77.9397
      17287.7      77.7666
      17300.2      77.5700
      17312.8      77.3978
      17325.3      77.2140
      17337.9      77.0347
      17350.4      76.8342
      17363.0      76.6635
      17375.5      76.4795
      17388.1      76.3017
      17400.6      76.1450
      17413.2      76.1386
      17425.7      76.1548
      17438.3      76.1609
      17450.8      76.1856
      17463.4      76.1972
      17475.9      76.2098
      17488.5      76.2284
      17501.0      76.2324
      17513.5      76.2591
      17526.1      76.2696
      17538.6      76.2842
      17551.2      76.2962
      17563.7      76.3149
      17576.3      76.3350
      17588.8      76.3427
      17601.4      76.3170
      17613.9      76.1904
      17626.5      76.0409
      17639.0      75.8955
      17651.6      75.7368
      17664.1      75.5919
      17676.7      75.4404
      17689.2      75.3000
      17701.8      75.1383
      17714.3      74.9970
      17726.9      74.8484
      17739.4      74.6910
      17751.9      74.5458
      17764.5      74.3975
      17777.0      74.2498
      17789.6      74.0914
      17802.1      73.9161
      17814.7      73.6630
      17827.2      73.3980
      17839.8      73.1392
      17852.3      72.8753
      17864.9      72.6076
      17877.4      72.3336
      17890.0      72.0837
      17902.5      71.8104
      17915.1      71.5540
      17927.6      71.2812
      17940.2      71.0193
      17952.7      70.7573
      17965.2      70.4880
      17977.8      70.2330
      17990.3      69.9640
      18002.9      69.7325
      18015.4      69.5683
      18028.0      69.3974
      18040.5      69.2509
      18053.1      69.0863
      18065.6      68.9347
      18078.2      68.7673
      18090.7      68.6132
      18103.3      68.4508
      18115.8      68.2939
      18128.4      68.1345
      18140.9      67.9785
      18153.5      67.8183
      18166.0      67.6592
      18178.6      67.4992
      18191.1      67.3329
      18203.6      67.2472
      18216.2      67.2610
      18228.7      67.2730
      18241.3      67.3010
      18253.8      67.3101
      18266.4      67.3375
      18278.9      67.3637
      18291.5      67.3775
      18304.0      67.4060
      18316.6      67.4175
      18329.1      67.4451
      18341.7      67.4658
      18354.2      67.4828
      18366.8      67.5094
      18379.3      67.5224
      18391.9      67.5453
      18404.4      67.4617
      18416.9      67.2189
      18429.5      66.9760
      18442.0      66.7217
      18454.6      66.4713
      18467.1      66.2162
      18479.7      65.9779
      18492.2      65.7195
      18504.8      65.4657
      18517.3      65.2244
      18529.9      64.9696
      18542.4      64.7132
      18555.0      64.4689
      18567.5      64.2133
      18580.1      63.9725
      18592.6      63.7155
      18605.2      63.5226
      18617.7      63.4143
      18630.3      63.3051
      18642.8      63.1790
      18655.3      63.0750
      18667.9      62.9671
      18680.4      62.8517
      18693.0      62.7398
      18705.5      62.6279
      18718.1      62.5161
      18730.6      62.4077
      18743.2      62.2886
      18755.7      62.1789
      18768.3      62.0691
      18780.8      61.9614
      18793.4      61.8403
      18805.9      61.7942
      18818.5      61.7867
      18831.0      61.7912
      18843.6      61.7963
      18856.1      61.7914
      18868.7      61.8004
      18881.2      61.7947
      18893.7      61.8063
      18906.3      61.7962
      18918.8      61.8056
      18931.4      61.8101
      18943.9      61.8092
      18956.5      61.8144
      18969.0      61.8120
      18981.6      61.8128
      18994.1      61.8100
      19006.7      61.7395
      19019.2      61.5991
      19031.8      61.4421
      19044.3      61.3094
      19056.9      61.1543
      19069.4      61.0108
      19082.0      60.8648
      19094.5      60.7188
      19107.0      60.5766
      19119.6      60.4278
      19132.1      60.2763
      19144.7      60.1350
      19157.2      59.9932
      19169.8      59.8340
      19182.3      59.6970
      19194.9      59.5514
      19207.4      59.3841
      19220.0      59.2062
      19232.5      59.0304
      19245.1      58.8477
      19257.6      58.6687
      19270.2      58.4919
      19282.7      58.3048
      19295.3      58.1375
      19307.8      57.9464
      19320.4      57.7781
      19332.9      57.5907
      19345.4      57.4125
      19358.0      57.2363
      19370.5      57.0563
      19383.1      56.8787
      19395.6      56.7015
      19408.2      56.6491
      19420.7      56.6605
      19433.3      56.6658
      19445.8      56.6780
      19458.4      56.6974
      19470.9      56.7076
      19483.5      56.7191
      19496.0      56.7344
      19508.6      56.7485
      19521.1      56.7569
      19533.7      56.7679
      19546.2      56.7826
      19558.7      56.7972
      19571.3      56.8092
      19583.8      56.8222
      19596.4      56.8264
      19608.9      56.7815
      19621.5      56.7066
      19634.0      56.6195
      19646.6      56.5446
      19659.1      56.4640
      19671.7      56.3892
      19684.2      56.3065
      19696.8      56.2321
      19709.3      56.1493
      19721.9      56.0717
      19734.4      55.9956
      19747.0      55.9073
      19759.5      55.8362
      19772.1      55.7541
      19784.6      55.6809
      19797.1      55.5985
      19809.7      55.5036
      19822.2      55.4111
      19834.8      55.3182
      19847.3      55.2186
      19859.9      55.1196
      19872.4      55.0255
      19885.0      54.9297
      19897.5      54.8322
      19910.1      54.7450
      19922.6      54.6410
      19935.2      54.5438
      19947.7      54.4506
      19960.3      54.3555
      19972.8      54.2558
      19985.4      54.1620
      19997.9      54.0692
      20010.5      53.9665
      20023.0      53.8686
      20035.5      53.7778
      20048.1      53.6711
      20060.6      53.5771
      20073.2      53.4764
      20085.7      53.3787
      20098.3      53.2802
      20110.8      53.1793
      20123.4      53.0833
      20135.9      52.9883
      20148.5      52.8863
      20161.0      52.7878
      20173.6      52.6944
      20186.1      52.5888
      20198.7      52.4930
      20211.2      52.4131
      20223.8      52.3203
      20236.3      52.2354
      20248.8      52.1549
      20261.4      52.0631
      20273.9      51.9824
      20286.5      51.8961
      20299.0      51.8174
      20311.6      51.7242
      20324.1      51.6385
      20336.7      51.5600
      20349.2      51.4734
      20361.8      51.3840
      20374.3      51.3016
      20386.9      51.2179
      20399.4      51.1331
      20412.0      51.0478
      20424.5      50.9564
      20437.1      50.8734
      20449.6      50.7860
      20462.1      50.7012
      20474.7      50.6094
      20487.2      50.5248
      20499.8      50.4387
      20512.3      50.3518
      20524.9      50.2620
      20537.4      50.1747
      20550.0      50.0921
      20562.5      50.0064
      20575.1      49.9154
      20587.6      49.8286
      20600.2      49.7516
      20612.7      49.6655
      20625.3      49.5974
      20637.8      49.5262
      20650.4      49.4555
      20662.9      49.3821
      20675.5      49.3043
      20688.0      49.2325
      20700.5      49.1654
      20713.1      49.0897
      20725.6      49.0151
      20738.2      48.9395
      20750.7      48.8665
      20763.3      48.7970
      20775.8      48.7280
      20788.4      48.6543
      20800.9      48.5714
      20813.5      48.4868
      20826.0      48.3969
      20838.6      48.3025
      20851.1      48.2172
      20863.7      48.1209
      20876.2      48.0339
      20888.8      47.9439
      20901.3      47.8532
      20913.9      47.7566
      20926.4      47.6736
      20938.9      47.5742
      20951.5      47.4881
      20964.0      47.4011
      20976.6      47.3095
      20989.1      47.2173
      21001.7      47.1262
      21014.2      47.0483
      21026.8      46.9767
      21039.3      46.8935
      21051.9      46.8242
      21064.4      46.7459
      21077.0      46.6657
      21089.5      46.5914
      21102.1      46.5187
      21114.6      46.4400
      21127.2      46.3599
      21139.7      46.2858
      21152.3      46.2130
      21164.8      46.1342
      21177.3      46.0575
      21189.9      45.9823
      21202.4      45.8846
      21215.0      45.7678
      21227.5      45.6409
      21240.1      45.5154
      21252.6      45.3813
      21265.2      45.2564
      21277.7      45.1290
      21290.3      45.0005
      21302.8      44.8788
      21315.4      44.7442
      21327.9      44.6198
      21340.5      44.4950
      21353.0      44.3610
      21365.6      44.2350
      21378.1      44.1087
      21390.6      43.9861
      21403.2      43.8576
      21415.7      43.7426
      21428.3      43.6332
      21440.8      43.5206
      21453.4      43.4041
      21465.9      43.2892
      21478.5      43.1750
      21491.0      43.0622
      21503.6      42.9547
      21516.1      42.8332
      21528.7      42.7240
      21541.2      42.6118
      21553.8      42.4986
      21566.3      42.3830
      21578.9      42.2671
      21591.4      42.1567
      21604.0      42.0819
      21616.5      42.0565
      21629.0      42.0457
      21641.6      42.0266
      21654.1      42.0135
      21666.7      42.0017
      21679.2      41.9838
      21691.8      41.9651
      21704.3      41.9543
      21716.9      41.9381
      21729.4      41.9221
      21742.0      41.9098
      21754.5      41.8921
      21767.1      41.8803
      21779.6      41.8623
      21792.2      41.8465
      21804.7      41.8343
      21817.3      41.8197
      21829.8      41.8018
      21842.4      41.7860
      21854.9      41.7680
      21867.4      41.7589
      21880.0      41.7371
      21892.5      41.7228
      21905.1      41.7069
      21917.6      41.6888
      21930.2      41.6786
      21942.7      41.6594
      21955.3      41.6448
      21967.8      41.6264
      21980.4      41.6152
      21992.9      41.5958
      22005.5      41.5571
      22018.0      41.4929
      22030.6      41.4227
      22043.1      41.3558
      22055.7      41.2899
      22068.2      41.2229
      22080.7      41.1570
      22093.3      41.0887
      22105.8      41.0235
      22118.4      40.9514
      22130.9      40.8891
      22143.5      40.8154
      22156.0      40.7538
      22168.6      40.6811
      22181.1      40.6211
      22193.7      40.5469
      22206.2      40.4912
      22218.8      40.4407
      22231.3      40.3849
      22243.9      40.3396
      22256.4      40.2844
      22269.0      40.2326
      22281.5      40.1784
      22294.1      40.1284
      22306.6      40.0776
      22319.1      40.0244
      22331.7      39.9784
      22344.2      39.9241
      22356.8      39.8705
      22369.3      39.8202
      22381.9      39.7664
      22394.4      39.7185
      22407.0      39.6530
      22419.5      39.5852
      22432.1      39.5179
      22444.6      39.4436
      22457.2      39.3806
      22469.7      39.3055
      22482.3      39.2329
      22494.8      39.1677
      22507.4      39.0941
      22519.9      39.0257
      22532.5      38.9583
      22545.0      38.8838
      22557.5      38.8160
      22570.1      38.7434
      22582.6      38.6798
      22595.2      38.6044
      22607.7      38.5471
      22620.3      38.4932
      22632.8      38.4416
      22645.4      38.3822
      22657.9      38.3266
      22670.5      38.2776
      22683.0      38.2240
      22695.6      38.1699
      22708.1      38.1125
      22720.7      38.0624
      22733.2      38.0025
      22745.8      37.9516
      22758.3      37.9014
      22770.8      37.8429
      22783.4      37.7912
      22795.9      37.7375
      22808.5      37.6964
      22821.0      37.6568
      22833.6      37.6169
      22846.1      37.5791
      22858.7      37.5450
      22871.2      37.5085
      22883.8      37.4693
      22896.3      37.4309
      22908.9      37.3961
      22921.4      37.3621
      22934.0      37.3197
      22946.5      37.2842
      22959.1      37.2442
      22971.6      37.2100
      22984.2      37.1720
      22996.7      37.1354
      23009.2      37.0837
      23021.8      37.0255
      23034.3      36.9705
      23046.9      36.9155
      23059.4      36.8574
      23072.0      36.8054
      23084.5      36.7476
      23097.1      36.6911
      23109.6      36.6342
      23122.2      36.5832
      23134.7      36.5211
      23147.3      36.4666
      23159.8      36.4147
      23172.4      36.3519
      23184.9      36.3014
      23197.5      36.2455
      23210.0      36.1845
      23222.5      36.1275
      23235.1      36.0749
      23247.6      36.0175
      23260.2      35.9558
      23272.7      35.9006
      23285.3      35.8439
      23297.8      35.7868
      23310.4      35.7285
      23322.9      35.6732
      23335.5      35.6180
      23348.0      35.5548
      23360.6      35.5001
      23373.1      35.4474
      23385.7      35.3855
      23398.2      35.3326
      23410.8      35.2892
      23423.3      35.2457
      23435.8      35.2097
      23448.4      35.1662
      23460.9      35.1259
      23473.5      35.0896
      23486.0      35.0442
      23498.6      35.0069
      23511.1      34.9667
      23523.7      34.9268
      23536.2      34.8900
      23548.8      34.8439
      23561.3      34.8051
      23573.9      34.7668
      23586.4      34.7268
      23599.0      34.6857
      23611.5      34.6279
      23624.1      34.5718
      23636.6      34.5106
      23649.2      34.4507
      23661.7      34.3900
      23674.2      34.3349
      23686.8      34.2740
      23699.3      34.2158
      23711.9      34.1539
      23724.4      34.0953
      23737.0      34.0348
      23749.5      33.9788
      23762.1      33.9189
      23774.6      33.8554
      23787.2      33.8034
      23799.7      33.7404
      23812.3      33.6996
      23824.8      33.6565
      23837.4      33.6155
      23849.9      33.5709
      23862.5      33.5303
      23875.0      33.4877
      23887.6      33.4503
      23900.1      33.4040
      23912.6      33.3642
      23925.2      33.3199
      23937.7      33.2782
      23950.3      33.2419
      23962.8      33.1940
      23975.4      33.1512
      23987.9      33.1121
      24000.5      33.0722
      24013.0      33.0302
      24025.6      32.9831
      24038.1      32.9440
      24050.7      32.8975
      24063.2      32.8554
      24075.8      32.8171
      24088.3      32.7679
      24100.9      32.7301
      24113.4      32.6858
      24126.0      32.6427
      24138.5      32.5991
      24151.0      32.5591
      24163.6      32.5148
      24176.1      32.4720
      24188.7      32.4293
      24201.2      32.3857
      24213.8      32.3403
      24226.3      32.2884
      24238.9      32.2452
      24251.4      32.1960
      24264.0      32.1516
      24276.5      32.1046
      24289.1      32.0546
      24301.6      32.0044
      24314.2      31.9644
      24326.7      31.9103
      24339.3      31.8683
      24351.8      31.8216
      24364.4      31.7693
      24376.9      31.7224
      24389.4      31.6791
      24402.0      31.6343
      24414.5      31.5962
      24427.1      31.5605
      24439.6      31.5274
      24452.2      31.4950
      24464.7      31.4576
      24477.3      31.4211
      24489.8      31.3867
      24502.4      31.3515
      24514.9      31.3202
      24527.5      31.2812
      24540.0      31.2472
      24552.6      31.2127
      24565.1      31.1766
      24577.7      31.1415
      24590.2      31.1106
      24602.7      31.0654
      24615.3      31.0257
      24627.8      30.9782
      24640.4      30.9364
      24652.9      30.8881
      24665.5      30.8452
      24678.0      30.7992
      24690.6      30.7554
      24703.1      30.7086
      24715.7      30.6635
      24728.2      30.6197
      24740.8      30.5735
      24753.3      30.5283
      24765.9      30.4832
      24778.4      30.4381
      24791.0      30.3930
      24803.5      30.3509
      24816.0      30.3136
      24828.6      30.2759
      24841.1      30.2427
      24853.7      30.2030
      24866.2      30.1699
      24878.8      30.1333
      24891.3      30.0953
      24903.9      30.0582
      24916.4      30.0232
      24929.0      29.9838
      24941.5      29.9526
      24954.1      29.9104
      24966.6      29.8792
      24979.2      29.8422
      24991.7      29.8041
      25004.3      29.7626
      25016.8      29.7138
      25029.4      29.6738
      25041.9      29.6248
      25054.4      29.5731
      25067.0      29.5325
      25079.5      29.4824
      25092.1      29.4387
      25104.6      29.3881
      25117.2      29.3445
      25129.7      29.2938
      25142.3      29.2519
      25154.8      29.2002
      25167.4      29.1555
      25179.9      29.1085
      25192.5      29.0637
      25205.0      29.0200
      25217.6      28.9799
      25230.1      28.9441
      25242.7      28.9065
      25255.2      28.8671
      25267.8      28.8269
      25280.3      28.7929
      25292.8      28.7539
      25305.4      28.7143
      25317.9      28.6770
      25330.5      28.6419
      25343.0      28.6039
      25355.6      28.5626
      25368.1      28.5238
      25380.7      28.4904
      25393.2      28.4510
      25405.8      28.4085
      25418.3      28.3735
      25430.9      28.3295
      25443.4      28.2901
      25456.0      28.2494
      25468.5      28.2054
      25481.1      28.1681
      25493.6      28.1279
      25506.1      28.0875
      25518.7      28.0482
      25531.2      28.0030
      25543.8      27.9655
      25556.3      27.9267
      25568.9      27.8819
      25581.4      27.8442
      25594.0      27.8141
