# spectrum  Type     U-V    B-V    V-R    V-I    V-J    V-K
# ---------------------------------------------------------
# bpgs_41  F8V      0.62   0.48   0.37   0.68   0.98   1.25
#
# lambda (Angstroms)  flux (phot/lambda)
#----------------------------------------------------------
PHOTLAM
      895.930  2.32173e-10
      908.286  7.15681e-10
      920.641  1.35648e-09
      932.996  2.76891e-09
      945.352  4.55827e-09
      957.707  6.72588e-09
      970.062  1.02743e-08
      982.417  1.46408e-08
      994.773  2.12760e-08
      1007.13  2.93485e-08
      1019.48  4.08674e-08
      1031.84  5.47496e-08
      1044.19  7.62102e-08
      1056.55  1.03255e-07
      1068.90  1.41244e-07
      1081.26  1.90748e-07
      1093.61  2.31509e-06
      1105.97  6.24760e-06
      1118.32  9.62127e-06
      1130.68  1.23996e-05
      1143.04  1.58701e-05
      1155.39  2.11108e-05
      1167.75  2.70187e-05
      1180.10  3.35302e-05
      1192.46  4.14287e-05
      1204.81  5.20137e-05
      1217.17  6.68404e-05
      1229.52  9.15526e-05
      1241.88  0.000121932
      1254.23  0.000158851
      1266.59  0.000198268
      1278.94  0.000240834
      1291.30  0.000295794
      1303.65  0.000357121
      1316.01  0.000425971
      1328.36  0.000503118
      1340.72  0.000588689
      1353.07  0.000694253
      1365.43  0.000819998
      1377.79  0.000970491
      1390.14   0.00115683
      1402.50   0.00136659
      1414.85   0.00161096
      1427.21   0.00189908
      1439.56   0.00222887
      1451.92   0.00263695
      1464.27   0.00308715
      1476.63   0.00359025
      1488.98   0.00422510
      1501.34   0.00747523
      1513.69    0.0209139
      1526.05    0.0348176
      1538.40    0.0472710
      1550.76    0.0509046
      1563.11    0.0545671
      1575.47    0.0641027
      1587.82    0.0755764
      1600.18    0.0879938
      1612.53    0.0999842
      1624.89     0.111242
      1637.25     0.121390
      1649.60     0.129238
      1661.96     0.433196
      1674.31      1.72821
      1686.67      2.77729
      1699.02      3.53243
      1711.38      4.17163
      1723.73      4.92583
      1736.09      5.94834
      1748.44      6.19250
      1760.80      6.29813
      1773.15      7.64519
      1785.51      8.22306
      1797.86      7.62120
      1810.22      6.49813
      1822.57      5.61786
      1834.93      5.88337
      1847.28      6.90085
      1859.64      8.32522
      1872.00      9.20860
      1884.35      10.0564
      1896.71      11.0283
      1909.06      12.2726
      1921.42      13.1009
      1933.77      11.8548
      1946.13      11.1757
      1958.48      11.5482
      1970.84      14.6180
      1983.19      17.4045
      1995.55      17.8094
      2007.90      17.0409
      2020.26      15.9777
      2032.61      16.8915
      2044.97      17.4700
      2057.32      17.2079
      2069.68      18.6798
      2082.03      20.4131
      2094.39      20.8705
      2106.74      21.4815
      2119.10      22.3051
      2131.46      23.0886
      2143.81      23.7080
      2156.17      24.0253
      2168.52      25.0339
      2180.88      26.6415
      2193.23      29.3554
      2205.59      30.7772
      2217.94      30.4902
      2230.30      30.6080
      2242.65      31.0691
      2255.01      32.1112
      2267.36      31.0228
      2279.72      28.9681
      2292.07      30.6504
      2304.43      32.0317
      2316.78      31.6644
      2329.14      29.8948
      2341.49      27.4703
      2353.85      24.8198
      2366.20      23.1871
      2378.56      22.3818
      2390.92      19.4034
      2403.27      18.2482
      2415.63      22.7052
      2427.98      27.6659
      2440.34      32.0871
      2452.69      32.6579
      2465.05      32.5266
      2477.40      32.2124
      2489.76      31.7677
      2502.11      30.5779
      2514.47      27.1499
      2526.82      24.0348
      2539.18      22.2454
      2551.53      27.8016
      2563.89      35.1379
      2576.24      42.6781
      2588.60      46.2632
      2600.95      46.2404
      2613.31      38.8771
      2625.67      39.3669
      2638.02      51.0907
      2650.38      73.8324
      2662.73      93.4990
      2675.09      95.6150
      2687.44      96.3344
      2699.80      96.7777
      2712.15      97.2226
      2724.51      94.7652
      2736.86      87.3141
      2749.22      75.4143
      2761.57      67.2017
      2773.93      79.7033
      2786.28      74.4410
      2798.64      52.8211
      2810.99      59.5078
      2823.35      77.7166
      2835.70      105.227
      2848.06      112.065
      2860.42      109.718
      2872.77      123.068
      2885.13      142.570
      2897.48      166.870
      2909.84      183.402
      2922.19      193.603
      2934.55      192.497
      2946.90      194.045
      2959.26      197.996
      2971.61      198.740
      2983.97      198.383
      2996.32      197.299
      3008.68      199.378
      3021.03      205.193
      3033.39      220.534
      3045.74      231.500
      3058.10      236.040
      3070.45      239.450
      3082.81      244.846
      3095.16      256.321
      3107.52      263.962
      3119.88      268.653
      3132.23      272.424
      3144.59      275.881
      3156.94      279.136
      3169.30      282.979
      3181.65      287.098
      3194.01      291.226
      3206.36      293.605
      3218.72      294.020
      3231.07      291.825
      3243.43      299.476
      3255.78      330.197
      3268.14      348.357
      3280.49      343.043
      3292.85      381.195
      3305.20      378.800
      3317.56      370.002
      3329.91      359.084
      3342.27      371.728
      3354.62      370.862
      3366.98      361.036
      3379.34      380.186
      3391.69      386.705
      3404.05      391.387
      3416.40      391.464
      3428.76      390.913
      3441.11      372.627
      3453.47      379.308
      3465.82      384.244
      3478.18      373.083
      3490.53      366.698
      3502.89      396.482
      3515.24      412.951
      3527.60      416.473
      3539.95      450.664
      3552.31      440.473
      3564.66      404.173
      3577.02      370.482
      3589.38      389.843
      3601.73      419.500
      3614.09      401.509
      3626.44      418.331
      3638.80      418.987
      3651.15      439.434
      3663.51      466.921
      3675.86      459.303
      3688.22      479.173
      3700.57      482.281
      3712.93      488.434
      3725.28      474.729
      3737.64      439.991
      3749.99      461.980
      3762.35      500.295
      3774.70      548.151
      3787.06      551.552
      3799.41      546.640
      3811.77      541.477
      3824.12      460.079
      3836.48      453.386
      3848.83      546.474
      3861.19      564.486
      3873.55      532.203
      3885.90      511.028
      3898.26      556.874
      3910.61      582.414
      3922.97      486.878
      3935.32      417.616
      3947.68      548.907
      3960.03      500.961
      3972.39      510.613
      3984.74      716.169
      3997.10      796.083
      4009.45      835.293
      4021.81      868.689
      4034.16      871.793
      4046.52      861.131
      4058.87      839.015
      4071.23      842.484
      4083.58      833.699
      4095.94      789.999
      4108.29      821.638
      4120.65      864.135
      4133.01      870.583
      4145.36      887.256
      4157.72      882.362
      4170.07      876.199
      4182.43      858.749
      4194.78      875.013
      4207.14      888.931
      4219.49      874.283
      4231.85      869.144
      4244.20      885.713
      4256.56      876.798
      4268.91      874.856
      4281.27      836.087
      4293.62      758.999
      4305.98      782.520
      4318.33      885.748
      4330.69      845.622
      4343.04      845.131
      4355.40      923.862
      4367.75      932.487
      4380.11      889.948
      4392.47      895.419
      4404.82      934.676
      4417.18      957.922
      4429.53      960.102
      4441.89      946.816
      4454.24      919.255
      4466.60      972.237
      4478.95      1004.98
      4491.31      1014.16
      4503.66      1043.43
      4516.02      1014.33
      4528.37      973.025
      4540.73      978.236
      4553.08      1006.81
      4565.44      1026.74
      4577.79      1006.75
      4590.15      989.360
      4602.51      1002.90
      4614.86      1010.83
      4627.21      1030.98
      4639.57      1021.23
      4651.93      1017.16
      4664.28      1001.00
      4676.64      1008.60
      4688.99      1005.45
      4701.35      985.749
      4713.70      1008.77
      4726.06      1030.24
      4738.41      1037.92
      4750.77      1030.81
      4763.12      1010.88
      4775.48      1029.82
      4787.83      1060.96
      4800.19      1067.86
      4812.54      1082.76
      4824.90      1060.26
      4837.25      1041.89
      4849.61      957.091
      4861.97      896.557
      4874.32      952.053
      4886.68      990.259
      4899.03      1010.52
      4911.39      1002.11
      4923.74      997.619
      4936.10      1006.99
      4948.45      1036.05
      4960.81      1044.14
      4973.16      1036.59
      4985.52      1009.75
      4997.87      1006.33
      5010.23      980.503
      5022.58      990.921
      5034.94      999.510
      5047.29      1013.73
      5059.65      1017.21
      5072.00      996.818
      5084.36      978.495
      5096.71      961.641
      5109.07      992.805
      5121.43      988.379
      5133.78      975.083
      5146.14      973.116
      5158.49      952.645
      5170.85      918.563
      5183.20      923.010
      5195.56      941.230
      5207.91      965.591
      5220.27      961.737
      5232.62      964.313
      5244.98      964.266
      5257.33      938.166
      5269.69      938.816
      5282.04      982.954
      5294.40      1007.46
      5306.75      1001.81
      5319.11      989.603
      5331.46      971.902
      5343.82      987.128
      5356.18      997.676
      5368.53      993.763
      5380.89      992.011
      5393.24      977.245
      5405.60      955.896
      5417.95      976.240
      5430.31      1011.15
      5442.66      1037.23
      5455.02      1036.07
      5467.37      1012.84
      5479.73      1006.41
      5492.08      1013.65
      5504.44      1004.62
      5516.79      1006.35
      5529.15      1019.67
      5541.50      1021.32
      5553.86      1022.35
      5566.21      994.364
      5578.57      994.837
      5590.93      1006.40
      5603.28      1010.03
      5615.64      1029.28
      5627.99      1022.19
      5640.35      1028.40
      5652.70      1018.94
      5665.06      1015.29
      5677.41      1026.08
      5689.77      1021.01
      5702.12      1006.91
      5714.48      1014.14
      5726.83      1045.98
      5739.19      1067.86
      5751.54      1074.34
      5763.90      1076.03
      5776.25      1072.78
      5788.61      1074.55
      5800.96      1076.90
      5813.32      1070.94
      5825.67      1075.56
      5838.03      1091.10
      5850.39      1074.63
      5862.74      1053.77
      5875.10      1047.10
      5887.45      1038.67
      5899.81      1031.43
      5912.16      1043.20
      5924.52      1054.50
      5936.87      1058.77
      5949.23      1052.01
      5961.58      1043.36
      5973.94      1044.78
      5986.29      1046.63
      5998.65      1047.70
      6011.00      1047.14
      6023.36      1045.84
      6035.71      1043.26
      6048.07      1021.99
      6060.42      995.097
      6072.78      994.719
      6085.13      997.647
      6097.49      999.937
      6109.84      1007.73
      6122.20      1019.23
      6134.56      1036.21
      6146.91      1044.41
      6159.27      1044.48
      6171.62      1039.50
      6183.98      1043.74
      6196.33      1066.03
      6208.69      1059.50
      6221.04      1043.00
      6233.40      1044.72
      6245.75      1045.61
      6258.11      1043.07
      6270.46      1041.37
      6282.82      1038.07
      6295.17      1030.35
      6307.53      1025.34
      6319.88      1022.86
      6332.24      1024.49
      6344.60      1025.31
      6356.95      1024.13
      6369.30      1025.77
      6381.66      1024.97
      6394.02      1011.32
      6406.37      989.679
      6418.73      965.897
      6431.08      979.070
      6443.44      997.080
      6455.79      1005.05
      6468.15      1007.19
      6480.50      1007.17
      6492.86      1010.95
      6505.21      1013.58
      6517.57      1012.37
      6529.92      991.206
      6542.28      967.142
      6554.63      955.097
      6566.99      953.874
      6579.34      962.740
      6591.70      988.550
      6604.05      1009.91
      6616.41      1016.54
      6628.76      1017.62
      6641.12      1015.11
      6653.48      1008.13
      6665.83      1002.07
      6678.19      998.878
      6690.54      1009.40
      6702.90      1018.28
      6715.25      1013.27
      6727.61      1013.51
      6739.96      1016.49
      6752.32      1012.36
      6764.67      1001.23
      6777.03      982.930
      6789.38      992.422
      6801.74      1009.18
      6814.09      1011.76
      6826.45      1015.49
      6838.80      1020.44
      6851.16      1014.73
      6863.52      999.579
      6875.87      970.862
      6888.23      970.055
      6900.58      985.188
      6912.94      1000.27
      6925.29      1009.50
      6937.65      1011.12
      6950.00      1010.91
      6962.36      1007.10
      6974.71      994.746
      6987.07      986.968
      6999.42      984.318
      7011.78      988.888
      7024.13      992.202
      7036.49      990.946
      7048.84      997.870
      7061.20      1005.58
      7073.55      1000.45
      7085.91      997.380
      7098.26      997.114
      7110.62      986.737
      7122.98      971.315
      7135.33      951.208
      7147.69      952.561
      7160.04      967.420
      7172.40      977.887
      7184.75      980.471
      7197.11      972.821
      7209.46      973.160
      7221.82      975.046
      7234.17      971.519
      7246.53      963.544
      7258.88      953.647
      7271.24      957.595
      7283.59      961.991
      7295.95      960.105
      7308.30      958.355
      7320.66      956.432
      7333.02      953.120
      7345.37      951.457
      7357.73      951.879
      7370.08      947.635
      7382.44      941.758
      7394.79      935.601
      7407.15      934.469
      7419.50      937.392
      7431.86      942.758
      7444.21      945.544
      7456.57      942.837
      7468.92      931.511
      7481.28      915.996
      7493.63      899.566
      7505.99      897.142
      7518.34      909.499
      7530.70      920.390
      7543.05      929.150
      7555.41      933.774
      7567.76      920.830
      7580.12      891.503
      7592.47      834.036
      7604.83      809.529
      7617.19      840.094
      7629.54      864.416
      7641.90      885.569
      7654.25      905.533
      7666.61      901.792
      7678.96      881.497
      7691.32      895.026
      7703.67      908.279
      7716.03      904.402
      7728.38      900.692
      7740.74      897.878
      7753.09      896.685
      7765.45      901.379
      7777.80      912.201
      7790.16      912.519
      7802.51      911.241
      7814.87      914.989
      7827.22      911.721
      7839.58      902.326
      7851.94      889.778
      7864.29      882.454
      7876.65      885.423
      7889.00      895.093
      7901.36      903.656
      7913.71      897.468
      7926.07      894.469
      7938.42      896.866
      7950.78      903.423
      7963.13      904.689
      7975.49      891.589
      7987.84      893.042
      8000.20      901.488
      8012.55      896.403
      8024.91      892.178
      8037.26      892.492
      8049.62      894.094
      8061.97      892.698
      8074.33      880.449
      8086.69      874.539
      8099.04      875.674
      8111.39      882.648
      8123.75      888.660
      8136.11      889.504
      8148.46      876.238
      8160.82      857.980
      8173.17      850.613
      8185.53      840.066
      8197.88      823.305
      8210.24      800.567
      8222.59      790.103
      8234.95      817.272
      8247.30      832.671
      8259.66      837.969
      8272.01      845.448
      8284.37      848.125
      8296.72      842.108
      8309.08      835.896
      8321.43      827.469
      8333.79      810.900
      8346.14      809.880
      8358.50      825.137
      8370.85      833.500
      8383.21      837.490
      8395.57      835.414
      8407.92      835.198
      8420.28      835.269
      8432.63      829.319
      8444.99      821.955
      8457.34      813.606
      8469.70      801.347
      8482.05      791.727
      8494.41      794.586
      8506.76      790.382
      8519.12      779.207
      8531.47      768.068
      8543.83      767.443
      8556.18      786.375
      8568.54      783.458
      8580.89      773.254
      8593.25      783.102
      8605.61      793.308
      8617.96      799.894
      8630.32      794.597
      8642.67      787.750
      8655.03      786.654
      8667.38      787.297
      8679.74      789.610
      8692.09      795.959
      8704.45      796.156
      8716.80      786.485
      8729.16      802.034
      8741.51      818.709
      8753.87      799.688
      8766.22      793.725
      8778.58      801.175
      8790.93      777.647
      8803.29      763.802
      8815.64      788.943
      8828.00      786.932
      8840.36      771.681
      8852.71      778.225
      8865.06      784.646
      8877.42      785.835
      8889.78      785.304
      8902.13      782.587
      8914.49      774.975
      8926.84      760.080
      8939.20      743.790
      8951.55      758.244
      8963.91      775.572
      8976.26      784.243
      8988.62      770.218
      9000.97      755.350
      9013.33      784.528
      9025.68      811.482
      9038.04      826.029
      9050.39      808.226
      9062.75      783.346
      9075.10      766.691
      9087.46      771.822
      9099.82      788.681
      9112.17      786.275
      9124.53      778.327
      9136.88      767.161
      9149.24      754.136
      9161.59      746.133
      9173.95      757.842
      9186.30      762.466
      9198.66      757.289
      9211.01      745.454
      9223.37      732.855
      9235.72      722.730
      9248.08      720.031
      9260.43      719.457
      9272.79      708.348
      9285.14      681.297
      9297.50      638.657
      9309.85      637.976
      9322.21      661.627
      9334.56      710.016
      9346.92      721.377
      9359.28      704.047
      9371.63      712.640
      9383.98      732.954
      9396.34      761.555
      9408.70      734.538
      9421.05      687.383
      9433.41      672.851
      9445.76      672.968
      9458.12      683.194
      9470.47      678.591
      9482.83      670.248
      9495.18      664.032
      9507.54      670.077
      9519.89      682.078
      9532.25      681.417
      9544.60      683.056
      9556.96      691.905
      9569.31      698.509
      9581.67      699.832
      9594.02      687.005
      9606.38      684.990
      9618.74      692.744
      9631.09      684.072
      9643.45      677.113
      9655.80      682.910
      9668.16      696.659
      9680.51      711.588
      9692.87      712.841
      9705.22      712.309
      9717.58      712.053
      9729.93      705.880
      9742.29      700.803
      9754.64      704.600
      9767.00      702.529
      9779.35      696.231
      9791.71      698.741
      9804.06      701.863
      9816.42      702.929
      9828.78      706.354
      9841.13      709.356
      9853.49      705.842
      9865.84      698.524
      9878.19      688.602
      9890.55      685.390
      9902.91      683.288
      9915.26      679.278
      9927.62      679.337
      9939.97      681.869
      9952.33      682.073
      9964.68      682.153
      9977.04      682.029
      9989.39      678.288
      10001.7      671.760
      10014.1      661.107
      10026.5      649.645
      10038.8      639.899
      10051.2      645.992
      10063.5      657.103
      10075.9      670.290
      10088.2      678.083
      10100.6      679.227
      10112.9      664.536
      10125.3      653.606
      10137.7      650.960
      10150.0      656.989
      10162.4      664.740
      10174.7      669.023
      10187.1      659.432
      10199.4      642.462
      10211.8      646.478
      10224.1      648.364
      10236.5      638.902
      10248.9      634.258
      10261.2      632.386
      10273.6      631.549
      10285.9      635.249
      10298.3      642.896
      10310.6      642.571
      10323.0      640.330
      10335.3      639.006
      10347.7      632.469
      10360.1      623.289
      10372.4      618.506
      10384.8      625.852
      10397.1      648.989
      10409.5      655.961
      10421.8      655.969
      10434.2      655.325
      10446.5      657.445
      10458.9      661.348
      10471.2      658.124
      10483.6      650.462
      10496.0      637.870
      10508.3      634.494
      10520.7      634.751
      10533.0      628.310
      10545.4      624.291
      10557.7      624.842
      10570.1      625.878
      10582.4      627.662
      10594.8      631.094
      10607.2      632.062
      10619.5      631.165
      10631.9      630.278
      10644.2      629.397
      10656.6      628.471
      10668.9      627.581
      10681.3      626.670
      10693.6      625.764
      10706.0      624.838
      10718.4      623.991
      10730.7      623.049
      10743.1      622.123
      10755.4      621.250
      10767.8      620.358
      10780.1      619.432
      10792.5      618.536
      10804.8      617.586
      10817.2      616.571
      10829.5      615.470
      10841.9      614.473
      10854.3      613.474
      10866.6      612.372
      10879.0      611.357
      10891.3      610.361
      10903.7      609.282
      10916.0      608.241
      10928.4      607.196
      10940.7      606.181
      10953.1      605.165
      10965.5      604.106
      10977.8      603.050
      10990.2      602.063
      11002.5      600.970
      11014.9      599.837
      11027.2      598.751
      11039.6      597.556
      11051.9      596.491
      11064.3      595.340
      11076.7      594.212
      11089.0      593.078
      11101.4      591.984
      11113.7      590.821
      11126.1      589.679
      11138.4      588.586
      11150.8      587.440
      11163.1      586.330
      11175.5      585.193
      11187.9      584.028
      11200.2      582.930
      11212.6      581.767
      11224.9      580.559
      11237.3      579.363
      11249.6      578.220
      11262.0      576.965
      11274.3      575.833
      11286.7      574.627
      11299.0      573.463
      11311.4      572.250
      11323.8      571.070
      11336.1      569.903
      11348.5      568.673
      11360.8      567.562
      11373.2      566.294
      11385.5      565.163
      11397.9      563.936
      11410.2      562.757
      11422.6      561.570
      11435.0      560.341
      11447.3      559.124
      11459.7      557.920
      11472.0      556.714
      11484.4      555.544
      11496.7      554.303
      11509.1      553.073
      11521.4      551.864
      11533.8      550.708
      11546.2      549.478
      11558.5      548.249
      11570.9      547.057
      11583.2      545.828
      11595.6      544.649
      11607.9      543.429
      11620.3      542.234
      11632.6      541.032
      11645.0      539.830
      11657.4      538.628
      11669.7      537.439
      11682.1      536.235
      11694.4      535.017
      11706.8      533.811
      11719.1      532.649
      11731.5      531.412
      11743.8      530.240
      11756.2      529.024
      11768.5      527.823
      11780.9      526.621
      11793.3      525.400
      11805.6      524.239
      11818.0      523.059
      11830.3      521.898
      11842.7      520.750
      11855.0      519.560
      11867.4      518.381
      11879.7      517.256
      11892.1      516.068
      11904.5      514.898
      11916.8      513.737
      11929.2      512.573
      11941.5      511.408
      11953.9      510.235
      11966.2      509.087
      11978.6      507.903
      11990.9      506.735
      12003.3      505.593
      12015.7      504.447
      12028.0      503.384
      12040.4      502.273
      12052.7      501.122
      12065.1      500.036
      12077.4      498.926
      12089.8      497.841
      12102.1      496.698
      12114.5      495.599
      12126.9      494.498
      12139.2      493.365
      12151.6      492.276
      12163.9      491.129
      12176.3      490.072
      12188.6      488.942
      12201.0      487.825
      12213.3      486.782
      12225.7      485.765
      12238.0      484.741
      12250.4      483.677
      12262.8      482.663
      12275.1      481.627
      12287.5      480.585
      12299.8      479.571
      12312.2      478.526
      12324.5      477.500
      12336.9      476.429
      12349.2      475.419
      12361.6      474.381
      12374.0      473.353
      12386.3      472.317
      12398.7      471.300
      12411.0      470.318
      12423.4      469.369
      12435.7      468.412
      12448.1      467.422
      12460.4      466.503
      12472.8      465.535
      12485.2      464.570
      12497.5      463.610
      12509.9      462.701
      12522.2      461.682
      12534.6      460.764
      12546.9      459.788
      12559.3      458.852
      12571.6      457.851
      12584.0      456.925
      12596.4      455.983
      12608.7      455.004
      12621.1      454.045
      12633.4      453.079
      12645.8      452.085
      12658.1      451.135
      12670.5      450.169
      12682.8      449.219
      12695.2      448.234
      12707.5      447.250
      12719.9      446.289
      12732.3      445.346
      12744.6      444.347
      12757.0      443.405
      12769.3      442.451
      12781.7      441.446
      12794.0      440.512
      12806.4      439.726
      12818.7      439.102
      12831.1      438.527
      12843.5      437.901
      12855.8      437.325
      12868.2      436.710
      12880.5      436.120
      12892.9      435.499
      12905.2      434.903
      12917.6      434.301
      12929.9      433.713
      12942.3      433.080
      12954.7      432.505
      12967.0      431.908
      12979.4      431.298
      12991.7      430.667
      13004.1      430.104
      13016.4      429.487
      13028.8      428.860
      13041.1      428.263
      13053.5      427.659
      13065.8      427.061
      13078.2      426.462
      13090.6      425.853
      13102.9      425.211
      13115.3      424.646
      13127.6      424.013
      13140.0      423.435
      13152.3      422.796
      13164.7      422.214
      13177.0      421.595
      13189.4      420.994
      13201.8      420.362
      13214.1      419.754
      13226.5      419.114
      13238.8      418.474
      13251.2      417.862
      13263.5      417.205
      13275.9      416.587
      13288.2      415.916
      13300.6      415.333
      13313.0      414.671
      13325.3      414.030
      13337.7      413.418
      13350.0      412.744
      13362.4      412.149
      13374.7      411.518
      13387.1      410.849
      13399.4      410.218
      13411.8      409.498
      13424.2      408.708
      13436.5      407.952
      13448.9      407.209
      13461.2      406.417
      13473.6      405.690
      13485.9      404.914
      13498.3      404.154
      13510.6      403.402
      13523.0      402.629
      13535.3      401.885
      13547.7      401.102
      13560.1      400.369
      13572.4      399.591
      13584.8      398.824
      13597.1      398.079
      13609.5      397.376
      13621.8      396.717
      13634.2      396.024
      13646.5      395.352
      13658.9      394.702
      13671.3      394.028
      13683.6      393.326
      13696.0      392.689
      13708.3      392.022
      13720.7      391.317
      13733.0      390.674
      13745.4      389.975
      13757.7      389.326
      13770.1      388.636
      13782.5      387.975
      13794.8      387.282
      13807.2      386.688
      13819.5      386.111
      13831.9      385.544
      13844.2      384.961
      13856.6      384.378
      13868.9      383.828
      13881.3      383.218
      13893.7      382.661
      13906.0      382.079
      13918.4      381.500
      13930.7      380.948
      13943.1      380.347
      13955.4      379.795
      13967.8      379.195
      13980.1      378.638
      13992.5      378.085
      14004.8      377.501
      14017.2      377.023
      14029.6      376.557
      14041.9      376.060
      14054.3      375.566
      14066.6      375.075
      14079.0      374.604
      14091.3      374.114
      14103.7      373.611
      14116.0      373.124
      14128.4      372.662
      14140.8      372.174
      14153.1      371.658
      14165.5      371.185
      14177.8      370.696
      14190.2      370.229
      14202.5      369.705
      14214.9      369.202
      14227.2      368.705
      14239.6      368.187
      14252.0      367.684
      14264.3      367.161
      14276.7      366.645
      14289.0      366.165
      14301.4      365.635
      14313.7      365.127
      14326.1      364.627
      14338.4      364.096
      14350.8      363.595
      14363.1      363.080
      14375.5      362.581
      14387.9      362.053
      14400.2      361.566
      14412.6      361.062
      14424.9      360.532
      14437.3      360.044
      14449.6      359.523
      14462.0      359.014
      14474.3      358.501
      14486.7      358.032
      14499.1      357.504
      14511.4      356.991
      14523.8      356.466
      14536.1      355.985
      14548.5      355.478
      14560.8      354.949
      14573.2      354.467
      14585.5      353.956
      14597.9      353.457
      14610.3      352.907
      14622.6      352.383
      14635.0      351.866
      14647.3      351.347
      14659.7      350.810
      14672.0      350.279
      14684.4      349.768
      14696.7      349.216
      14709.1      348.707
      14721.5      348.158
      14733.8      347.654
      14746.2      347.116
      14758.5      346.576
      14770.9      346.072
      14783.2      345.534
      14795.6      344.996
      14807.9      344.478
      14820.3      343.919
      14832.7      343.350
      14845.0      342.825
      14857.4      342.277
      14869.7      341.715
      14882.1      341.159
      14894.4      340.620
      14906.8      340.051
      14919.1      339.522
      14931.5      338.970
      14943.8      338.412
      14956.2      337.858
      14968.6      337.310
      14980.9      336.766
      14993.3      336.219
      15005.6      335.653
      15018.0      335.116
      15030.3      334.547
      15042.7      333.992
      15055.0      333.441
      15067.4      332.874
      15079.8      332.318
      15092.1      331.761
      15104.5      331.211
      15116.8      330.642
      15129.2      330.089
      15141.5      329.557
      15153.9      328.984
      15166.2      328.401
      15178.6      327.877
      15191.0      327.317
      15203.3      326.750
      15215.7      326.226
      15228.0      325.714
      15240.4      325.172
      15252.7      324.649
      15265.1      324.102
      15277.4      323.574
      15289.8      323.059
      15302.1      322.518
      15314.5      321.991
      15326.9      321.462
      15339.2      320.948
      15351.6      320.397
      15363.9      319.866
      15376.3      319.346
      15388.6      318.800
      15401.0      318.318
      15413.3      317.845
      15425.7      317.409
      15438.1      316.989
      15450.4      316.551
      15462.8      316.120
      15475.1      315.668
      15487.5      315.253
      15499.8      314.802
      15512.2      314.360
      15524.5      313.943
      15536.9      313.500
      15549.3      313.055
      15561.6      312.621
      15574.0      312.195
      15586.3      311.743
      15598.7      311.339
      15611.0      310.888
      15623.4      310.508
      15635.7      310.061
      15648.1      309.667
      15660.5      309.277
      15672.8      308.835
      15685.2      308.431
      15697.5      308.011
      15709.9      307.622
      15722.2      307.189
      15734.6      306.782
      15746.9      306.373
      15759.3      305.968
      15771.6      305.525
      15784.0      305.142
      15796.4      304.730
      15808.7      304.441
      15821.1      304.252
      15833.4      304.042
      15845.8      303.809
      15858.1      303.631
      15870.5      303.389
      15882.8      303.214
      15895.2      302.983
      15907.6      302.774
      15919.9      302.567
      15932.3      302.350
      15944.6      302.158
      15957.0      301.938
      15969.3      301.707
      15981.7      301.527
      15994.0      301.316
      16006.4      301.122
      16018.8      300.995
      16031.1      300.865
      16043.5      300.733
      16055.8      300.580
      16068.2      300.449
      16080.5      300.298
      16092.9      300.171
      16105.2      300.046
      16117.6      299.890
      16130.0      299.748
      16142.3      299.617
      16154.7      299.470
      16167.0      299.361
      16179.4      299.202
      16191.7      299.051
      16204.1      298.833
      16216.4      298.444
      16228.8      298.058
      16241.1      297.656
      16253.5      297.289
      16265.9      296.860
      16278.2      296.483
      16290.6      296.099
      16302.9      295.687
      16315.3      295.302
      16327.6      294.910
      16340.0      294.518
      16352.3      294.107
      16364.7      293.729
      16377.1      293.357
      16389.4      292.933
      16401.8      292.488
      16414.1      291.904
      16426.5      291.298
      16438.8      290.724
      16451.2      290.056
      16463.5      289.481
      16475.9      288.870
      16488.3      288.238
      16500.6      287.646
      16513.0      287.035
      16525.3      286.431
      16537.7      285.806
      16550.0      285.188
      16562.4      284.640
      16574.7      283.965
      16587.1      283.378
      16599.4      282.786
      16611.8      282.281
      16624.2      281.817
      16636.5      281.352
      16648.9      280.861
      16661.2      280.389
      16673.6      279.899
      16685.9      279.426
      16698.3      278.952
      16710.6      278.506
      16723.0      277.991
      16735.4      277.539
      16747.7      277.027
      16760.1      276.610
      16772.4      276.099
      16784.8      275.634
      16797.1      275.161
      16809.5      274.722
      16821.8      274.299
      16834.2      273.899
      16846.6      273.487
      16858.9      273.075
      16871.3      272.664
      16883.6      272.262
      16896.0      271.841
      16908.3      271.413
      16920.7      271.016
      16933.0      270.578
      16945.4      270.188
      16957.8      269.779
      16970.1      269.357
      16982.5      268.942
      16994.8      268.516
      17007.2      268.080
      17019.5      267.532
      17031.9      267.037
      17044.2      266.489
      17056.6      265.985
      17069.0      265.492
      17081.3      264.975
      17093.7      264.450
      17106.0      263.897
      17118.4      263.430
      17130.7      262.898
      17143.1      262.385
      17155.4      261.863
      17167.8      261.325
      17180.1      260.843
      17192.5      260.317
      17204.9      259.800
      17217.2      259.282
      17229.6      258.764
      17241.9      258.246
      17254.3      257.727
      17266.6      257.209
      17279.0      256.682
      17291.3      256.164
      17303.7      255.660
      17316.1      255.142
      17328.4      254.628
      17340.8      254.107
      17353.1      253.593
      17365.5      253.075
      17377.8      252.556
      17390.2      252.018
      17402.5      251.550
      17414.9      251.013
      17427.3      250.551
      17439.6      250.065
      17452.0      249.579
      17464.3      249.093
      17476.7      248.619
      17489.0      248.130
      17501.4      247.630
      17513.7      247.154
      17526.1      246.632
      17538.4      246.188
      17550.8      245.681
      17563.2      245.183
      17575.5      244.723
      17587.9      244.227
      17600.2      243.755
      17612.6      243.315
      17624.9      242.925
      17637.3      242.509
      17649.6      242.095
      17662.0      241.697
      17674.4      241.277
      17686.7      240.861
      17699.1      240.471
      17711.4      240.039
      17723.8      239.634
      17736.1      239.221
      17748.5      238.814
      17760.8      238.405
      17773.2      237.995
      17785.6      237.600
      17797.9      237.145
      17810.3      236.743
      17822.6      236.298
      17835.0      235.853
      17847.3      235.366
      17859.7      234.957
      17872.0      234.523
      17884.4      234.034
      17896.8      233.617
      17909.1      233.182
      17921.5      232.707
      17933.8      232.271
      17946.2      231.824
      17958.5      231.378
      17970.9      230.932
      17983.2      230.474
      17995.6      230.050
      18007.9      229.614
      18020.3      229.213
      18032.7      228.807
      18045.0      228.401
      18057.4      227.987
      18069.7      227.598
      18082.1      227.191
      18094.4      226.778
      18106.8      226.372
      18119.1      225.977
      18131.5      225.538
      18143.9      225.144
      18156.2      224.782
      18168.6      224.311
      18180.9      223.955
      18193.3      223.546
      18205.6      223.170
      18218.0      222.852
      18230.3      222.535
      18242.7      222.220
      18255.1      221.891
      18267.4      221.588
      18279.8      221.283
      18292.1      220.940
      18304.5      220.626
      18316.8      220.337
      18329.2      220.008
      18341.5      219.694
      18353.9      219.380
      18366.3      219.070
      18378.6      218.729
      18391.0      218.440
      18403.3      218.086
      18415.7      217.795
      18428.0      217.475
      18440.4      217.157
      18452.7      216.852
      18465.1      216.536
      18477.4      216.206
      18489.8      215.871
      18502.2      215.563
      18514.5      215.247
      18526.9      214.935
      18539.2      214.629
      18551.6      214.279
      18563.9      213.981
      18576.3      213.649
      18588.6      213.369
      18601.0      213.004
      18613.4      212.617
      18625.7      212.195
      18638.1      211.820
      18650.4      211.411
      18662.8      211.016
      18675.1      210.610
      18687.5      210.208
      18699.8      209.816
      18712.2      209.396
      18724.5      209.004
      18736.9      208.610
      18749.3      208.184
      18761.6      207.790
      18774.0      207.408
      18786.3      206.997
      18798.7      206.614
      18811.0      206.317
      18823.4      206.038
      18835.7      205.768
      18848.1      205.494
      18860.5      205.226
      18872.8      204.943
      18885.2      204.681
      18897.5      204.397
      18909.9      204.154
      18922.2      203.865
      18934.6      203.612
      18946.9      203.330
      18959.3      203.041
      18971.7      202.764
      18984.0      202.526
      18996.4      202.236
      19008.7      201.884
      19021.1      201.523
      19033.4      201.141
      19045.8      200.771
      19058.1      200.375
      19070.5      200.023
      19082.9      199.622
      19095.2      199.264
      19107.6      198.871
      19119.9      198.524
      19132.3      198.123
      19144.6      197.759
      19157.0      197.366
      19169.3      197.013
      19181.7      196.606
      19194.1      196.234
      19206.4      195.908
      19218.8      195.571
      19231.1      195.249
      19243.5      194.930
      19255.8      194.603
      19268.2      194.295
      19280.5      193.947
      19292.9      193.663
      19305.3      193.286
      19317.6      193.024
      19330.0      192.661
      19342.3      192.346
      19354.7      192.026
      19367.0      191.703
      19379.4      191.379
      19391.7      191.053
      19404.1      190.764
      19416.4      190.482
      19428.8      190.188
      19441.2      189.903
      19453.5      189.650
      19465.9      189.365
      19478.2      189.095
      19490.6      188.804
      19502.9      188.535
      19515.3      188.230
      19527.6      187.986
      19540.0      187.677
      19552.4      187.432
      19564.7      187.131
      19577.1      186.871
      19589.4      186.560
      19601.8      186.316
      19614.1      186.024
      19626.5      185.725
      19638.8      185.446
      19651.2      185.137
      19663.5      184.849
      19675.9      184.588
      19688.3      184.300
      19700.6      183.984
      19713.0      183.696
      19725.3      183.438
      19737.7      183.146
      19750.0      182.840
      19762.4      182.550
      19774.7      182.272
      19787.1      181.989
      19799.5      181.684
      19811.8      181.435
      19824.2      181.182
      19836.5      180.917
      19848.9      180.628
      19861.2      180.413
      19873.6      180.129
      19885.9      179.883
      19898.3      179.585
      19910.7      179.368
      19923.0      179.102
      19935.4      178.816
      19947.7      178.588
      19960.1      178.307
      19972.4      178.060
      19984.8      177.804
      19997.1      177.526
      20009.5      177.281
      20021.9      177.024
      20034.2      176.771
      20046.6      176.502
      20058.9      176.270
      20071.3      175.999
      20083.6      175.745
      20096.0      175.492
      20108.3      175.241
      20120.7      174.983
      20133.1      174.727
      20145.4      174.469
      20157.8      174.217
      20170.1      173.952
      20182.5      173.720
      20194.8      173.444
      20207.2      173.210
      20219.5      172.934
      20231.9      172.662
      20244.2      172.420
      20256.6      172.143
      20269.0      171.890
      20281.3      171.633
      20293.7      171.370
      20306.0      171.109
      20318.4      170.837
      20330.7      170.590
      20343.1      170.329
      20355.4      170.061
      20367.8      169.829
      20380.2      169.533
      20392.5      169.285
      20404.9      169.018
      20417.2      168.714
      20429.6      168.393
      20441.9      168.125
      20454.3      167.826
      20466.6      167.492
      20479.0      167.228
      20491.4      166.920
      20503.7      166.612
      20516.1      166.344
      20528.4      166.014
      20540.8      165.719
      20553.1      165.450
      20565.5      165.124
      20577.8      164.826
      20590.2      164.518
      20602.6      164.241
      20614.9      163.986
      20627.3      163.702
      20639.6      163.438
      20652.0      163.139
      20664.3      162.900
      20676.7      162.622
      20689.0      162.364
      20701.4      162.068
      20713.7      161.816
      20726.1      161.558
      20738.5      161.283
      20750.8      161.002
      20763.2      160.730
      20775.5      160.480
      20787.9      160.189
      20800.2      159.928
      20812.6      159.651
      20824.9      159.384
      20837.3      159.092
      20849.7      158.821
      20862.0      158.552
      20874.4      158.253
      20886.7      157.993
      20899.1      157.681
      20911.4      157.436
      20923.8      157.151
      20936.1      156.882
      20948.5      156.591
      20960.9      156.315
      20973.2      156.021
      20985.6      155.770
      20997.9      155.481
      21010.3      155.192
      21022.6      154.918
      21035.0      154.645
      21047.3      154.355
      21059.7      154.083
      21072.1      153.794
      21084.4      153.512
      21096.8      153.242
      21109.1      152.950
      21121.5      152.669
      21133.8      152.380
      21146.2      152.111
      21158.5      151.824
      21170.9      151.547
      21183.2      151.267
      21195.6      150.989
      21208.0      150.764
      21220.3      150.589
      21232.7      150.398
      21245.0      150.211
      21257.4      150.013
      21269.7      149.835
      21282.1      149.644
      21294.4      149.474
      21306.8      149.282
      21319.2      149.105
      21331.5      148.907
      21343.9      148.720
      21356.2      148.529
      21368.6      148.355
      21380.9      148.166
      21393.3      147.980
      21405.6      147.770
      21418.0      147.510
      21430.4      147.249
      21442.7      146.978
      21455.1      146.729
      21467.4      146.475
      21479.8      146.201
      21492.1      145.959
      21504.5      145.685
      21516.8      145.430
      21529.2      145.181
      21541.6      144.910
      21553.9      144.650
      21566.3      144.388
      21578.6      144.139
      21591.0      143.879
      21603.3      143.645
      21615.7      143.483
      21628.0      143.293
      21640.4      143.112
      21652.7      142.945
      21665.1      142.779
      21677.5      142.576
      21689.8      142.428
      21702.2      142.255
      21714.5      142.063
      21726.9      141.893
      21739.2      141.712
      21751.6      141.554
      21763.9      141.372
      21776.3      141.197
      21788.7      141.022
      21801.0      140.839
      21813.4      140.678
      21825.7      140.492
      21838.1      140.314
      21850.4      140.136
      21862.8      139.949
      21875.1      139.803
      21887.5      139.595
      21899.9      139.425
      21912.2      139.249
      21924.6      139.071
      21936.9      138.900
      21949.3      138.709
      21961.6      138.530
      21974.0      138.361
      21986.3      138.184
      21998.7      138.005
      22011.0      137.848
      22023.4      137.686
      22035.8      137.492
      22048.1      137.353
      22060.5      137.177
      22072.8      137.028
      22085.2      136.856
      22097.5      136.697
      22109.9      136.525
      22122.2      136.365
      22134.6      136.200
      22147.0      136.036
      22159.3      135.872
      22171.7      135.711
      22184.0      135.531
      22196.4      135.392
      22208.7      135.193
      22221.1      134.979
      22233.4      134.782
      22245.8      134.577
      22258.2      134.389
      22270.5      134.171
      22282.9      133.995
      22295.2      133.768
      22307.6      133.573
      22319.9      133.363
      22332.3      133.177
      22344.6      132.967
      22357.0      132.758
      22369.4      132.571
      22381.7      132.357
      22394.1      132.162
      22406.4      131.973
      22418.8      131.812
      22431.1      131.613
      22443.5      131.457
      22455.8      131.309
      22468.2      131.111
      22480.5      130.955
      22492.9      130.767
      22505.3      130.605
      22517.6      130.439
      22530.0      130.268
      22542.3      130.091
      22554.7      129.915
      22567.0      129.742
      22579.4      129.590
      22591.7      129.418
      22604.1      129.221
      22616.5      129.060
      22628.8      128.902
      22641.2      128.714
      22653.5      128.560
      22665.9      128.368
      22678.2      128.202
      22690.6      128.031
      22702.9      127.857
      22715.3      127.691
      22727.7      127.508
      22740.0      127.328
      22752.4      127.173
      22764.7      126.980
      22777.1      126.826
      22789.4      126.645
      22801.8      126.482
      22814.1      126.306
      22826.5      126.118
      22838.8      125.955
      22851.2      125.772
      22863.6      125.599
      22875.9      125.418
      22888.3      125.251
      22900.6      125.073
      22913.0      124.896
      22925.3      124.730
      22937.7      124.544
      22950.0      124.381
      22962.4      124.201
      22974.8      124.016
      22987.1      123.855
      22999.5      123.671
      23011.8      123.503
      23024.2      123.304
      23036.5      123.138
      23048.9      122.958
      23061.2      122.774
      23073.6      122.601
      23086.0      122.413
      23098.3      122.248
      23110.7      122.056
      23123.0      121.894
      23135.4      121.708
      23147.7      121.524
      23160.1      121.350
      23172.4      121.153
      23184.8      120.994
      23197.2      120.803
      23209.5      120.656
      23221.9      120.515
      23234.2      120.361
      23246.6      120.224
      23258.9      120.066
      23271.3      119.924
      23283.6      119.788
      23296.0      119.639
      23308.4      119.493
      23320.7      119.337
      23333.1      119.193
      23345.4      119.066
      23357.8      118.905
      23370.1      118.767
      23382.5      118.605
      23394.8      118.464
      23407.2      118.358
      23419.5      118.226
      23431.9      118.120
      23444.3      118.001
      23456.6      117.903
      23469.0      117.777
      23481.3      117.681
      23493.7      117.561
      23506.0      117.451
      23518.4      117.336
      23530.7      117.218
      23543.1      117.116
      23555.5      116.997
      23567.8      116.887
      23580.2      116.782
      23592.5      116.656
      23604.9      116.518
      23617.2      116.338
      23629.6      116.138
      23641.9      115.956
      23654.3      115.775
      23666.7      115.575
      23679.0      115.393
      23691.4      115.190
      23703.7      115.019
      23716.1      114.832
      23728.4      114.631
      23740.8      114.442
      23753.1      114.263
      23765.5      114.081
      23777.8      113.874
      23790.2      113.706
      23802.6      113.516
      23814.9      113.349
      23827.3      113.211
      23839.6      113.051
      23852.0      112.891
      23864.3      112.752
      23876.7      112.584
      23889.0      112.441
      23901.4      112.275
      23913.8      112.134
      23926.1      111.971
      23938.5      111.805
      23950.8      111.667
      23963.2      111.515
      23975.5      111.350
      23987.9      111.200
      24000.2      111.053
      24012.6      110.930
      24025.0      110.816
      24037.3      110.697
      24049.7      110.581
      24062.0      110.463
      24074.4      110.345
      24086.7      110.230
      24099.1      110.118
      24111.4      110.001
      24123.8      109.873
      24136.2      109.770
      24148.5      109.641
      24160.9      109.524
      24173.2      109.425
      24185.6      109.285
      24197.9      109.179
      24210.3      109.026
      24222.6      108.873
      24235.0      108.703
      24247.3      108.550
      24259.7      108.372
      24272.1      108.214
      24284.4      108.067
      24296.8      107.904
      24309.1      107.731
      24321.5      107.569
      24333.8      107.414
      24346.2      107.253
      24358.5      107.103
      24370.9      106.924
      24383.3      106.764
      24395.6      106.613
      24408.0      106.445
      24420.3      106.292
      24432.7      106.121
      24445.0      105.973
      24457.4      105.805
      24469.7      105.649
      24482.1      105.490
      24494.5      105.323
      24506.8      105.178
      24519.2      105.002
      24531.5      104.858
      24543.9      104.691
      24556.2      104.529
      24568.6      104.364
      24580.9      104.207
      24593.3      104.051
      24605.7      103.901
      24618.0      103.786
      24630.4      103.664
      24642.7      103.517
      24655.1      103.411
      24667.4      103.271
      24679.8      103.150
      24692.1      103.030
      24704.5      102.893
      24716.8      102.767
      24729.2      102.646
      24741.6      102.521
      24753.9      102.392
      24766.3      102.269
      24778.6      102.150
      24791.0      102.017
      24803.3      101.875
      24815.7      101.712
      24828.0      101.552
      24840.4      101.387
      24852.8      101.207
      24865.1      101.043
      24877.5      100.885
      24889.8      100.712
      24902.2      100.545
      24914.5      100.389
      24926.9      100.221
      24939.2      100.043
      24951.6      99.8831
      24964.0      99.7206
      24976.3      99.5443
      24988.7      99.3785
      25001.0      99.2332
      25013.4      99.1291
      25025.7      99.0448
      25038.1      98.9502
      25050.4      98.8560
      25062.8      98.7571
      25075.1      98.6809
      25087.5      98.5865
      25099.9      98.4865
      25112.2      98.3888
      25124.6      98.3105
      25136.9      98.2193
      25149.3      98.1124
      25161.6      98.0358
      25174.0      97.9461
      25186.3      97.8366
      25198.7      97.7510
      25211.1      97.6269
      25223.4      97.4995
      25235.8      97.3693
      25248.1      97.2241
      25260.5      97.0941
      25272.8      96.9690
      25285.2      96.8354
      25297.5      96.6965
      25309.9      96.5752
      25322.3      96.4432
      25334.6      96.3056
      25347.0      96.1673
      25359.3      96.0368
      25371.7      95.9162
      25384.0      95.7722
      25396.4      95.6409
      25408.7      95.5141
      25421.1      95.3724
      25433.5      95.2407
      25445.8      95.1047
      25458.2      94.9742
      25470.5      94.8330
      25482.9      94.7034
      25495.2      94.5557
      25507.6      94.4344
      25519.9      94.3006
      25532.3      94.1583
      25544.7      94.0141
      25557.0      93.8874
      25569.4      93.7590
      25581.7      93.6152
      25594.1      93.5182
