# spectrum  Type     U-V    B-V    V-R    V-I    V-J    V-K
# ---------------------------------------------------------
# bpgs_24  A5V      0.24   0.12   0.09   0.19   0.32   0.40
#
# lambda (Angstroms)  flux (phot/lambda)
#----------------------------------------------------------
PHOTLAM
      512.023  1.57418e-15
      524.570  5.07822e-15
      537.117  1.02968e-14
      549.664  2.72927e-14
      562.212  5.30054e-14
      574.759  1.26902e-13
      587.306  2.50082e-13
      599.853  5.67669e-13
      612.401  1.07216e-12
      624.948  2.41128e-12
      637.495  4.10503e-12
      650.042  9.46240e-12
      662.590  1.60820e-11
      675.137  3.11838e-11
      687.684  6.20878e-11
      700.231  9.40460e-11
      712.779  1.84853e-10
      725.326  3.13284e-10
      737.873  5.17370e-10
      750.420  9.82585e-10
      762.968  1.46987e-09
      775.515  2.61591e-09
      788.062  4.59314e-09
      800.609  6.57308e-09
      813.157  1.01589e-08
      825.704  1.76483e-08
      838.251  2.53134e-08
      850.798  3.59151e-08
      863.346  6.03001e-08
      875.893  8.64451e-08
      888.440  5.63252e-07
      900.987  5.73070e-06
      913.535  1.21427e-05
      926.082  3.00892e-05
      938.629  6.00389e-05
      951.177  8.76403e-05
      963.724  0.000118964
      976.271  0.000165813
      988.818  0.000216241
      1001.37  0.000274316
      1013.91  0.000336552
      1026.46  0.000410735
      1039.01  0.000500517
      1051.55  0.000638826
      1064.10  0.000788844
      1076.65  0.000964174
      1089.20   0.00246716
      1101.74   0.00815542
      1114.29    0.0133374
      1126.84    0.0159062
      1139.39    0.0184011
      1151.93    0.0223277
      1164.48    0.0263176
      1177.03    0.0298202
      1189.57    0.0312014
      1202.12    0.0332007
      1214.67    0.0402123
      1227.22     0.118554
      1239.76     0.323213
      1252.31     0.999851
      1264.86      2.26462
      1277.41      4.27800
      1289.95      6.00498
      1302.50      7.69350
      1315.05      9.57418
      1327.59      11.5992
      1340.14      13.4086
      1352.69      13.4715
      1365.24      13.7774
      1377.78      14.7917
      1390.33      15.7510
      1402.88      16.6596
      1415.42      17.4990
      1427.97      19.2394
      1440.52      21.8211
      1453.07      25.8900
      1465.61      28.1283
      1478.16      28.0491
      1490.71      30.0252
      1503.26      37.0867
      1515.80      54.6660
      1528.35      68.0437
      1540.90      75.4752
      1553.44      67.4137
      1565.99      70.5080
      1578.54      87.5917
      1591.09      101.873
      1603.63      113.905
      1616.18      122.579
      1628.73      127.302
      1641.28      130.333
      1653.82      134.200
      1666.37      137.001
      1678.92      139.767
      1691.46      151.933
      1704.01      171.246
      1716.56      199.598
      1729.11      214.232
      1741.65      227.735
      1754.20      259.827
      1766.75      277.377
      1779.30      282.739
      1791.84      302.329
      1804.39      308.147
      1816.94      285.434
      1829.48      272.445
      1842.03      269.472
      1854.58      285.874
      1867.13      295.814
      1879.67      299.797
      1892.22      305.285
      1904.77      310.240
      1917.32      313.718
      1929.86      313.595
      1942.41      313.842
      1954.96      318.989
      1967.50      318.029
      1980.05      311.239
      1992.60      296.415
      2005.15      285.976
      2017.69      284.030
      2030.24      289.511
      2042.79      294.293
      2055.33      290.696
      2067.88      298.036
      2080.43      308.329
      2092.98      296.264
      2105.52      285.153
      2118.07      278.732
      2130.62      263.612
      2143.17      252.114
      2155.71      255.909
      2168.26      258.748
      2180.81      261.481
      2193.35      268.082
      2205.90      268.161
      2218.45      260.430
      2231.00      254.453
      2243.54      248.634
      2256.09      242.493
      2268.64      247.994
      2281.19      256.488
      2293.73      252.379
      2306.28      243.955
      2318.83      232.822
      2331.37      223.648
      2343.92      215.980
      2356.47      210.535
      2369.02      208.825
      2381.56      207.225
      2394.11      199.643
      2406.66      202.702
      2419.20      216.630
      2431.75      236.705
      2444.30      250.928
      2456.85      251.997
      2469.39      247.704
      2481.94      245.539
      2494.49      257.764
      2507.04      257.879
      2519.58      245.552
      2532.13      221.290
      2544.68      215.068
      2557.22      241.564
      2569.77      265.732
      2582.32      282.248
      2594.87      278.430
      2607.41      274.577
      2619.96      277.042
      2632.51      311.658
      2645.06      335.458
      2657.60      335.300
      2670.15      331.261
      2682.70      326.744
      2695.24      324.385
      2707.79      326.293
      2720.34      327.333
      2732.89      309.286
      2745.43      298.904
      2757.98      301.622
      2770.53      296.517
      2783.07      288.864
      2795.62      281.456
      2808.17      300.029
      2820.72      331.101
      2833.26      349.312
      2845.81      352.925
      2858.36      342.765
      2870.91      345.579
      2883.45      353.543
      2896.00      365.141
      2908.55      379.457
      2921.09      391.250
      2933.64      386.303
      2946.19      386.053
      2958.74      392.403
      2971.28      396.150
      2983.83      402.182
      2996.38      414.024
      3008.93      422.169
      3021.47      427.393
      3034.02      428.417
      3046.57      428.568
      3059.11      429.343
      3071.66      438.292
      3084.21      444.109
      3096.76      441.050
      3109.30      442.176
      3121.85      446.039
      3134.40      452.881
      3146.95      457.754
      3159.49      460.764
      3172.04      463.769
      3184.59      466.337
      3197.13      467.949
      3209.68      465.131
      3222.23      461.209
      3234.78      459.326
      3247.32      472.651
      3259.87      496.201
      3272.42      490.715
      3284.97      474.059
      3297.51      517.365
      3310.06      505.987
      3322.61      495.491
      3335.15      500.505
      3347.70      495.139
      3360.25      495.257
      3372.80      486.713
      3385.34      488.258
      3397.89      501.932
      3410.44      518.997
      3422.98      517.100
      3435.53      493.667
      3448.08      500.846
      3460.63      506.998
      3473.17      504.444
      3485.72      497.490
      3498.27      495.458
      3510.82      489.504
      3523.36      488.277
      3535.91      489.545
      3548.46      505.278
      3561.00      498.668
      3573.55      484.729
      3586.10      482.843
      3598.65      474.962
      3611.19      474.054
      3623.74      486.043
      3636.29      491.739
      3648.84      502.452
      3661.38      509.582
      3673.93      500.413
      3686.48      493.735
      3699.02      501.704
      3711.57      525.098
      3724.12      565.046
      3736.67      577.771
      3749.21      618.605
      3761.76      648.577
      3774.31      734.720
      3786.86      783.423
      3799.40      775.033
      3811.95      917.154
      3824.50      861.631
      3837.04      769.370
      3849.59      990.454
      3862.14      1156.06
      3874.69      1001.81
      3887.23      795.485
      3899.78      959.664
      3912.33      1154.59
      3924.87      1112.30
      3937.42      1089.74
      3949.97      1092.44
      3962.52      848.340
      3975.06      867.017
      3987.61      1171.49
      4000.16      1390.60
      4012.71      1450.30
      4025.25      1486.56
      4037.80      1516.01
      4050.35      1510.50
      4062.89      1448.14
      4075.44      1277.72
      4087.99      1031.86
      4100.54      884.333
      4113.08      1088.40
      4125.63      1343.16
      4138.18      1465.67
      4150.73      1476.44
      4163.27      1479.34
      4175.82      1450.59
      4188.37      1481.27
      4200.91      1518.22
      4213.46      1494.43
      4226.01      1478.86
      4238.56      1438.53
      4251.10      1432.60
      4263.65      1447.30
      4276.20      1420.37
      4288.74      1352.91
      4301.29      1238.84
      4313.84      1096.23
      4326.39      928.707
      4338.93      816.578
      4351.48      983.807
      4364.03      1203.12
      4376.58      1301.12
      4389.12      1296.13
      4401.67      1266.21
      4414.22      1301.75
      4426.76      1327.60
      4439.31      1318.20
      4451.86      1312.42
      4464.41      1314.68
      4476.95      1313.44
      4489.50      1326.42
      4502.05      1358.28
      4514.60      1366.39
      4527.14      1353.58
      4539.69      1352.43
      4552.24      1333.63
      4564.78      1345.10
      4577.33      1346.20
      4589.88      1374.50
      4602.43      1390.15
      4614.97      1382.72
      4627.52      1349.89
      4640.07      1356.53
      4652.62      1334.03
      4665.16      1328.63
      4677.71      1331.58
      4690.26      1322.33
      4702.81      1312.79
      4715.35      1286.06
      4727.90      1291.26
      4740.45      1298.69
      4752.99      1306.58
      4765.54      1283.05
      4778.09      1299.48
      4790.64      1279.71
      4803.18      1259.44
      4815.73      1206.79
      4828.28      1150.05
      4840.82      1015.14
      4853.37      804.616
      4865.92      802.467
      4878.47      978.153
      4891.01      1107.54
      4903.56      1158.39
      4916.11      1171.79
      4928.66      1185.03
      4941.20      1206.68
      4953.75      1208.07
      4966.30      1202.41
      4978.84      1168.85
      4991.39      1178.82
      5003.94      1174.46
      5016.49      1160.26
      5029.03      1147.25
      5041.58      1133.94
      5054.13      1150.78
      5066.67      1152.51
      5079.22      1141.99
      5091.77      1130.52
      5104.32      1123.71
      5116.86      1119.89
      5129.41      1104.26
      5141.96      1108.01
      5154.51      1111.62
      5167.05      1088.72
      5179.60      1085.93
      5192.15      1062.48
      5204.69      1061.82
      5217.24      1069.02
      5229.79      1066.72
      5242.34      1074.41
      5254.88      1073.91
      5267.43      1044.83
      5279.98      1054.50
      5292.53      1061.22
      5305.07      1057.64
      5317.62      1048.34
      5330.17      1041.90
      5342.71      1046.94
      5355.26      1016.51
      5367.81      1003.57
      5380.36      1005.32
      5392.90      1011.93
      5405.45      1001.42
      5418.00      1008.38
      5430.55      1002.29
      5443.09      1008.21
      5455.64      1002.76
      5468.19      1004.90
      5480.73      1017.69
      5493.28      1024.40
      5505.83      1010.37
      5518.38      981.051
      5530.92      1001.86
      5543.47      1011.70
      5556.02      1013.09
      5568.57      1013.67
      5581.11      1001.94
      5593.66      989.882
      5606.21      990.293
      5618.75      978.239
      5631.30      978.036
      5643.85      973.600
      5656.40      970.143
      5668.94      959.425
      5681.49      954.366
      5694.04      955.029
      5706.58      956.655
      5719.13      953.425
      5731.68      946.658
      5744.23      939.369
      5756.77      951.296
      5769.32      944.907
      5781.87      934.846
      5794.41      939.661
      5806.96      942.488
      5819.51      942.624
      5832.06      942.601
      5844.60      935.674
      5857.15      918.358
      5869.70      911.815
      5882.25      906.002
      5894.79      889.642
      5907.34      881.423
      5919.89      881.059
      5932.44      888.001
      5944.98      894.783
      5957.53      899.033
      5970.08      897.844
      5982.62      891.497
      5995.17      876.629
      6007.72      876.202
      6020.27      884.263
      6032.81      884.192
      6045.36      884.620
      6057.91      887.210
      6070.45      887.739
      6083.00      882.682
      6095.55      865.923
      6108.10      864.809
      6120.64      868.098
      6133.19      845.570
      6145.74      832.091
      6158.29      833.088
      6170.83      832.596
      6183.38      833.181
      6195.93      837.185
      6208.47      836.290
      6221.02      830.788
      6233.57      817.301
      6246.12      804.116
      6258.66      792.528
      6271.21      783.735
      6283.76      781.334
      6296.30      790.204
      6308.85      796.821
      6321.40      800.068
      6333.95      795.902
      6346.49      790.355
      6359.04      784.784
      6371.59      782.828
      6384.14      784.194
      6396.68      789.904
      6409.23      788.206
      6421.78      785.085
      6434.32      788.197
      6446.87      779.202
      6459.42      762.742
      6471.97      768.094
      6484.51      771.257
      6497.06      762.633
      6509.61      740.813
      6522.16      709.688
      6534.70      666.335
      6547.25      644.388
      6559.80      646.464
      6572.34      689.457
      6584.89      730.643
      6597.44      756.173
      6609.99      760.579
      6622.53      757.116
      6635.08      753.106
      6647.63      753.906
      6660.18      759.354
      6672.72      772.301
      6685.27      776.995
      6697.82      769.233
      6710.36      762.609
      6722.91      757.650
      6735.46      756.066
      6748.01      758.456
      6760.55      763.241
      6773.10      768.120
      6785.65      767.976
      6798.20      761.785
      6810.74      753.239
      6823.29      750.750
      6835.84      762.351
      6848.38      747.303
      6860.93      721.286
      6873.48      714.068
      6886.03      721.524
      6898.57      740.821
      6911.12      748.490
      6923.67      747.462
      6936.21      735.002
      6948.76      724.628
      6961.31      715.300
      6973.86      705.136
      6986.40      694.197
      6998.95      684.215
      7011.50      687.355
      7024.05      691.440
      7036.59      691.541
      7049.14      690.460
      7061.69      687.827
      7074.23      681.302
      7086.78      679.343
      7099.33      681.502
      7111.88      681.684
      7124.42      680.891
      7136.97      679.301
      7149.52      678.367
      7162.07      675.065
      7174.61      663.994
      7187.16      662.963
      7199.71      668.348
      7212.25      661.361
      7224.80      653.468
      7237.35      648.191
      7249.90      649.651
      7262.44      653.431
      7274.99      656.414
      7287.54      657.690
      7300.09      657.754
      7312.63      657.780
      7325.18      650.676
      7337.73      634.898
      7350.27      630.489
      7362.82      628.905
      7375.37      624.820
      7387.92      627.058
      7400.46      633.181
      7413.01      637.486
      7425.56      635.589
      7438.11      627.413
      7450.65      628.148
      7463.20      631.105
      7475.75      632.454
      7488.29      627.983
      7500.84      622.880
      7513.39      629.712
      7525.94      635.747
      7538.48      639.558
      7551.03      646.946
      7563.58      635.119
      7576.12      581.632
      7588.67      532.191
      7601.22      509.277
      7613.77      578.000
      7626.31      614.963
      7638.86      609.074
      7651.41      600.773
      7663.96      586.428
      7676.50      562.400
      7689.05      554.661
      7701.60      555.372
      7714.15      558.269
      7726.69      563.435
      7739.24      569.955
      7751.79      572.807
      7764.33      572.574
      7776.88      568.633
      7789.43      565.568
      7801.98      564.461
      7814.52      568.215
      7827.07      567.970
      7839.62      564.818
      7852.16      565.878
      7864.71      564.767
      7877.26      559.076
      7889.81      554.607
      7902.35      551.622
      7914.90      551.400
      7927.45      546.680
      7939.99      540.927
      7952.54      548.194
      7965.09      552.916
      7977.64      551.189
      7990.18      553.655
      8002.73      554.718
      8015.28      548.446
      8027.83      544.923
      8040.37      543.533
      8052.92      541.826
      8065.47      537.376
      8078.02      529.706
      8090.56      524.043
      8103.11      521.635
      8115.66      525.553
      8128.20      533.558
      8140.75      539.744
      8153.30      528.191
      8165.85      517.419
      8178.39      511.562
      8190.94      517.086
      8203.49      520.357
      8216.03      512.727
      8228.58      523.770
      8241.13      539.189
      8253.68      530.791
      8266.22      521.205
      8278.77      512.696
      8291.32      497.741
      8303.86      496.418
      8316.41      522.716
      8328.96      518.748
      8341.51      505.046
      8354.05      510.987
      8366.60      506.562
      8379.15      494.642
      8391.70      509.945
      8404.24      514.306
      8416.79      490.132
      8429.34      487.822
      8441.88      489.786
      8454.43      473.380
      8466.98      476.121
      8479.53      494.222
      8492.07      499.525
      8504.62      498.702
      8517.17      492.860
      8529.72      490.072
      8542.26      490.255
      8554.81      495.511
      8567.36      503.305
      8579.90      511.430
      8592.45      512.331
      8605.00      514.463
      8617.55      519.814
      8630.09      520.657
      8642.64      508.124
      8655.19      465.856
      8667.73      473.197
      8680.28      509.064
      8692.83      514.023
      8705.38      506.098
      8717.92      489.734
      8730.47      487.014
      8743.02      487.724
      8755.57      486.453
      8768.11      499.425
      8780.66      513.877
      8793.21      495.854
      8805.76      487.576
      8818.30      493.208
      8830.85      469.088
      8843.40      447.258
      8855.94      449.532
      8868.49      459.975
      8881.04      473.325
      8893.59      482.634
      8906.13      490.018
      8918.68      496.797
      8931.23      509.914
      8943.78      512.963
      8956.32      493.119
      8968.87      473.856
      8981.42      453.377
      8993.96      426.120
      9006.51      417.647
      9019.06      429.949
      9031.61      460.899
      9044.15      478.750
      9056.70      467.047
      9069.25      471.738
      9081.80      482.922
      9094.34      489.172
      9106.89      487.556
      9119.44      480.497
      9131.98      478.580
      9144.53      473.309
      9157.08      461.245
      9169.63      454.186
      9182.17      447.243
      9194.72      434.157
      9207.27      418.543
      9219.81      404.564
      9232.36      408.418
      9244.91      421.048
      9257.46      441.623
      9270.00      467.455
      9282.55      487.986
      9295.10      488.882
      9307.65      471.417
      9320.19      448.470
      9332.74      457.358
      9345.29      464.932
      9357.83      463.869
      9370.38      466.151
      9382.93      467.557
      9395.48      463.342
      9408.02      434.907
      9420.57      401.740
      9433.12      414.254
      9445.66      430.826
      9458.21      442.498
      9470.76      443.785
      9483.31      430.585
      9495.85      393.304
      9508.40      372.964
      9520.95      364.682
      9533.50      363.574
      9546.04      375.714
      9558.59      400.191
      9571.14      416.997
      9583.69      425.459
      9596.23      421.563
      9608.78      416.102
      9621.33      410.819
      9633.87      407.947
      9646.42      417.565
      9658.97      437.465
      9671.52      449.378
      9684.06      448.912
      9696.61      430.827
      9709.16      423.685
      9721.71      424.758
      9734.25      434.533
      9746.80      432.999
      9759.35      422.351
      9771.89      420.971
      9784.44      419.843
      9796.99      416.455
      9809.53      423.943
      9822.08      431.301
      9834.63      424.098
      9847.18      420.793
      9859.72      420.070
      9872.27      409.999
      9884.82      401.742
      9897.37      400.099
      9909.91      411.584
      9922.46      421.453
      9935.01      413.385
      9947.55      402.022
      9960.10      392.714
      9972.65      400.687
      9985.20      408.656
      9997.74      409.400
      10010.3      377.262
      10022.8      347.839
      10035.4      353.399
      10047.9      363.443
      10060.5      376.439
      10073.0      396.983
      10085.6      405.437
      10098.1      398.418
      10110.7      397.720
      10123.2      396.238
      10135.8      388.975
      10148.3      395.795
      10160.9      405.561
      10173.4      392.362
      10186.0      391.394
      10198.5      403.901
      10211.0      388.278
      10223.6      373.347
      10236.1      375.773
      10248.7      368.075
      10261.2      360.222
      10273.8      373.186
      10286.3      380.765
      10298.9      379.372
      10311.4      371.352
      10324.0      368.556
      10336.5      377.789
      10349.1      380.979
      10361.6      381.093
      10374.2      381.707
      10386.7      381.204
      10399.3      377.856
      10411.8      363.532
      10424.4      354.798
      10436.9      359.133
      10449.4      362.258
      10462.0      363.961
      10474.5      363.852
      10487.1      366.403
      10499.6      369.751
      10512.2      364.600
      10524.7      365.476
      10537.3      376.612
      10549.8      366.592
      10562.4      352.870
      10574.9      352.661
      10587.5      354.422
      10600.0      356.402
      10612.6      356.108
      10625.1      355.377
      10637.7      354.701
      10650.2      353.996
      10662.7      353.262
      10675.3      352.579
      10687.8      351.843
      10700.4      351.158
      10712.9      350.415
      10725.5      349.751
      10738.0      349.007
      10750.6      348.299
      10763.1      347.600
      10775.7      346.896
      10788.2      346.206
      10800.8      345.464
      10813.3      344.810
      10825.9      344.105
      10838.4      343.429
      10851.0      342.748
      10863.5      342.080
      10876.1      341.377
      10888.6      340.716
      10901.1      340.029
      10913.7      339.361
      10926.2      338.662
      10938.8      337.994
      10951.3      337.291
      10963.9      336.623
      10976.4      335.941
      10989.0      335.264
      11001.5      334.596
      11014.1      333.904
      11026.6      333.260
      11039.2      332.593
      11051.7      331.905
      11064.3      331.275
      11076.8      330.579
      11089.4      329.932
      11101.9      329.274
      11114.4      328.584
      11127.0      327.941
      11139.5      327.258
      11152.1      326.611
      11164.6      325.943
      11177.2      325.259
      11189.7      324.621
      11202.3      323.955
      11214.8      323.274
      11227.4      322.632
      11239.9      321.965
      11252.5      321.306
      11265.0      320.662
      11277.6      320.001
      11290.1      319.312
      11302.7      318.688
      11315.2      318.017
      11327.8      317.357
      11340.3      316.689
      11352.8      316.050
      11365.4      315.390
      11377.9      314.720
      11390.5      314.062
      11403.0      313.397
      11415.6      312.734
      11428.1      312.102
      11440.7      311.418
      11453.2      310.765
      11465.8      310.099
      11478.3      309.426
      11490.9      308.775
      11503.4      308.107
      11516.0      307.470
      11528.5      306.781
      11541.1      306.137
      11553.6      305.454
      11566.1      304.817
      11578.7      304.149
      11591.2      303.480
      11603.8      302.835
      11616.3      302.144
      11628.9      301.469
      11641.4      300.818
      11654.0      300.130
      11666.5      299.479
      11679.1      298.794
      11691.6      298.121
      11704.2      297.444
      11716.7      296.767
      11729.3      296.107
      11741.8      295.443
      11754.4      294.762
      11766.9      294.095
      11779.5      293.417
      11792.0      292.762
      11804.5      292.062
      11817.1      291.405
      11829.6      290.693
      11842.2      290.013
      11854.7      289.312
      11867.3      288.645
      11879.8      287.960
      11892.4      287.253
      11904.9      286.578
      11917.5      285.882
      11930.0      285.201
      11942.6      284.522
      11955.1      283.823
      11967.7      283.141
      11980.2      282.446
      11992.8      281.761
      12005.3      281.058
      12017.9      280.380
      12030.4      279.648
      12042.9      278.949
      12055.5      278.240
      12068.0      277.543
      12080.6      276.830
      12093.1      276.122
      12105.7      275.417
      12118.2      274.699
      12130.8      274.012
      12143.3      273.297
      12155.9      272.583
      12168.4      271.898
      12181.0      271.169
      12193.5      270.484
      12206.1      269.745
      12218.6      269.014
      12231.2      268.292
      12243.7      267.565
      12256.2      266.833
      12268.8      266.100
      12281.3      265.367
      12293.9      264.640
      12306.4      263.905
      12319.0      263.182
      12331.5      262.442
      12344.1      261.717
      12356.6      260.980
      12369.2      260.262
      12381.7      259.522
      12394.3      258.787
      12406.8      258.123
      12419.4      257.469
      12431.9      256.825
      12444.5      256.194
      12457.0      255.552
      12469.6      254.913
      12482.1      254.277
      12494.6      253.630
      12507.2      252.989
      12519.7      252.357
      12532.3      251.721
      12544.8      251.067
      12557.4      250.431
      12569.9      249.797
      12582.5      249.153
      12595.0      248.519
      12607.6      247.505
      12620.1      246.313
      12632.7      245.060
      12645.2      243.840
      12657.8      242.632
      12670.3      241.390
      12682.9      240.155
      12695.4      238.950
      12708.0      237.716
      12720.5      236.481
      12733.0      235.266
      12745.6      234.046
      12758.1      232.816
      12770.7      231.575
      12783.2      230.366
      12795.8      229.177
      12808.3      228.811
      12820.9      228.912
      12833.4      229.049
      12846.0      229.164
      12858.5      229.287
      12871.1      229.406
      12883.6      229.537
      12896.2      229.649
      12908.7      229.754
      12921.3      229.897
      12933.8      230.005
      12946.3      230.144
      12958.9      230.245
      12971.4      230.379
      12984.0      230.489
      12996.5      230.596
      13009.1      230.301
      13021.6      229.838
      13034.2      229.369
      13046.7      228.901
      13059.3      228.416
      13071.8      227.954
      13084.4      227.477
      13096.9      227.014
      13109.5      226.540
      13122.0      226.069
      13134.6      225.591
      13147.1      225.136
      13159.7      224.648
      13172.2      224.188
      13184.7      223.716
      13197.3      223.246
      13209.8      222.744
      13222.4      222.260
      13234.9      221.776
      13247.5      221.291
      13260.0      220.782
      13272.6      220.292
      13285.1      219.801
      13297.7      219.313
      13310.2      218.819
      13322.8      218.327
      13335.3      217.835
      13347.9      217.341
      13360.4      216.848
      13373.0      216.363
      13385.5      215.861
      13398.0      215.381
      13410.6      214.897
      13423.1      214.401
      13435.7      213.924
      13448.2      213.442
      13460.8      212.967
      13473.3      212.471
      13485.9      211.996
      13498.4      211.504
      13511.0      211.030
      13523.5      210.547
      13536.1      210.073
      13548.6      209.580
      13561.2      209.105
      13573.7      208.612
      13586.3      208.143
      13598.8      207.651
      13611.4      207.202
      13623.9      206.768
      13636.4      206.321
      13649.0      205.883
      13661.5      205.440
      13674.1      205.007
      13686.6      204.550
      13699.2      204.117
      13711.7      203.678
      13724.3      203.224
      13736.8      202.793
      13749.4      202.360
      13761.9      201.911
      13774.5      201.464
      13787.0      201.041
      13799.6      200.585
      13812.1      200.190
      13824.7      199.794
      13837.2      199.385
      13849.7      199.011
      13862.3      198.590
      13874.8      198.208
      13887.4      197.809
      13899.9      197.406
      13912.5      197.009
      13925.0      196.630
      13937.6      196.220
      13950.1      195.823
      13962.7      195.423
      13975.2      195.035
      13987.8      194.627
      14000.3      194.237
      14012.9      193.846
      14025.4      193.439
      14038.0      193.040
      14050.5      192.646
      14063.1      192.243
      14075.6      191.862
      14088.1      191.452
      14100.7      191.057
      14113.2      190.654
      14125.8      190.263
      14138.3      189.873
      14150.9      189.463
      14163.4      189.084
      14176.0      188.664
      14188.5      188.280
      14201.1      187.876
      14213.6      187.457
      14226.2      187.062
      14238.7      186.639
      14251.3      186.213
      14263.8      185.812
      14276.4      185.407
      14288.9      184.983
      14301.5      184.562
      14314.0      184.164
      14326.5      183.745
      14339.1      183.326
      14351.6      182.921
      14364.2      182.506
      14376.7      182.085
      14389.3      181.685
      14401.8      181.277
      14414.4      180.945
      14426.9      180.605
      14439.5      180.282
      14452.0      179.952
      14464.6      179.609
      14477.1      179.285
      14489.7      178.958
      14502.2      178.616
      14514.8      178.288
      14527.3      177.965
      14539.8      177.620
      14552.4      177.297
      14564.9      176.955
      14577.5      176.624
      14590.0      176.300
      14602.6      175.960
      14615.1      175.622
      14627.7      175.269
      14640.2      174.923
      14652.8      174.585
      14665.3      174.231
      14677.9      173.890
      14690.4      173.538
      14703.0      173.200
      14715.5      172.861
      14728.1      172.511
      14740.6      172.167
      14753.2      171.814
      14765.7      171.480
      14778.2      171.125
      14790.8      170.780
      14803.3      170.440
      14815.9      170.070
      14828.4      169.717
      14841.0      169.364
      14853.5      168.993
      14866.1      168.641
      14878.6      168.276
      14891.2      167.931
      14903.7      167.566
      14916.3      167.204
      14928.8      166.847
      14941.4      166.485
      14953.9      166.137
      14966.5      165.778
      14979.0      165.407
      14991.6      165.060
      15004.1      164.705
      15016.6      164.387
      15029.2      164.066
      15041.7      163.751
      15054.3      163.417
      15066.8      163.096
      15079.4      162.790
      15091.9      162.461
      15104.5      162.134
      15117.0      161.818
      15129.6      161.494
      15142.1      161.180
      15154.7      160.845
      15167.2      160.536
      15179.8      160.211
      15192.3      159.892
      15204.9      159.569
      15217.4      159.235
      15229.9      158.915
      15242.5      158.593
      15255.0      158.262
      15267.6      157.937
      15280.1      157.603
      15292.7      157.293
      15305.2      156.948
      15317.8      156.641
      15330.3      156.300
      15342.9      155.984
      15355.4      155.653
      15368.0      155.318
      15380.5      155.009
      15393.1      154.671
      15405.6      154.379
      15418.2      154.094
      15430.7      153.828
      15443.3      153.554
      15455.8      153.283
      15468.3      153.014
      15480.9      152.737
      15493.4      152.477
      15506.0      152.199
      15518.5      151.915
      15531.1      151.656
      15543.6      151.382
      15556.2      151.105
      15568.7      150.837
      15581.3      150.561
      15593.8      150.292
      15606.4      150.046
      15618.9      149.815
      15631.5      149.594
      15644.0      149.366
      15656.6      149.140
      15669.1      148.918
      15681.7      148.687
      15694.2      148.464
      15706.7      148.233
      15719.3      148.014
      15731.8      147.788
      15744.4      147.558
      15756.9      147.337
      15769.5      147.102
      15782.0      146.888
      15794.6      146.663
      15807.1      146.473
      15819.7      146.318
      15832.2      146.174
      15844.8      146.011
      15857.3      145.869
      15869.9      145.710
      15882.4      145.561
      15895.0      145.403
      15907.5      145.260
      15920.0      145.103
      15932.6      144.956
      15945.1      144.793
      15957.7      144.647
      15970.2      144.500
      15982.8      144.343
      15995.3      144.189
      16007.9      143.943
      16020.4      143.632
      16033.0      143.342
      16045.5      143.032
      16058.1      142.737
      16070.6      142.428
      16083.2      142.125
      16095.7      141.819
      16108.3      141.524
      16120.8      141.213
      16133.3      140.918
      16145.9      140.615
      16158.4      140.309
      16171.0      140.002
      16183.5      139.705
      16196.1      139.391
      16208.6      139.104
      16221.2      138.807
      16233.7      138.510
      16246.3      138.217
      16258.8      137.921
      16271.4      137.621
      16283.9      137.328
      16296.5      137.032
      16309.0      136.743
      16321.6      136.440
      16334.1      136.146
      16346.7      135.852
      16359.2      135.557
      16371.7      135.257
      16384.3      134.959
      16396.8      134.690
      16409.4      134.511
      16421.9      134.376
      16434.5      134.256
      16447.0      134.150
      16459.6      134.022
      16472.1      133.911
      16484.7      133.781
      16497.2      133.651
      16509.8      133.550
      16522.3      133.407
      16534.9      133.306
      16547.4      133.179
      16560.0      133.063
      16572.5      132.924
      16585.1      132.838
      16597.6      132.657
      16610.1      132.292
      16622.7      131.804
      16635.2      131.312
      16647.8      130.839
      16660.3      130.353
      16672.9      129.885
      16685.4      129.387
      16698.0      128.917
      16710.5      128.434
      16723.1      127.950
      16735.6      127.468
      16748.2      126.974
      16760.7      126.509
      16773.3      126.027
      16785.8      125.532
      16798.4      125.096
      16810.9      124.961
      16823.4      124.909
      16836.0      124.862
      16848.5      124.809
      16861.1      124.751
      16873.6      124.726
      16886.2      124.660
      16898.7      124.617
      16911.3      124.562
      16923.8      124.530
      16936.4      124.468
      16948.9      124.423
      16961.5      124.392
      16974.0      124.317
      16986.6      124.282
      16999.1      124.209
      17011.7      124.070
      17024.2      123.902
      17036.8      123.714
      17049.3      123.538
      17061.8      123.379
      17074.4      123.186
      17086.9      123.028
      17099.5      122.856
      17112.0      122.672
      17124.6      122.490
      17137.1      122.322
      17149.7      122.152
      17162.2      121.980
      17174.8      121.798
      17187.3      121.627
      17199.9      121.418
      17212.4      121.047
      17225.0      120.654
      17237.5      120.242
      17250.1      119.848
      17262.6      119.459
      17275.1      119.038
      17287.7      118.652
      17300.2      118.230
      17312.8      117.845
      17325.3      117.443
      17337.9      117.048
      17350.4      116.620
      17363.0      116.238
      17375.5      115.835
      17388.1      115.442
      17400.6      115.087
      17413.2      114.983
      17425.7      114.918
      17438.3      114.837
      17450.8      114.785
      17463.4      114.713
      17475.9      114.642
      17488.5      114.580
      17501.0      114.497
      17513.5      114.447
      17526.1      114.373
      17538.6      114.306
      17551.2      114.234
      17563.7      114.173
      17576.3      114.113
      17588.8      114.036
      17601.4      113.948
      17613.9      113.830
      17626.5      113.698
      17639.0      113.572
      17651.6      113.426
      17664.1      113.301
      17676.7      113.167
      17689.2      113.048
      17701.8      112.898
      17714.3      112.779
      17726.9      112.648
      17739.4      112.504
      17751.9      112.379
      17764.5      112.249
      17777.0      112.120
      17789.6      111.975
      17802.1      111.827
      17814.7      111.620
      17827.2      111.404
      17839.8      111.197
      17852.3      110.982
      17864.9      110.762
      17877.4      110.531
      17890.0      110.338
      17902.5      110.109
      17915.1      109.906
      17927.6      109.677
      17940.2      109.465
      17952.7      109.254
      17965.2      109.030
      17977.8      108.829
      17990.3      108.607
      18002.9      108.330
      18015.4      107.931
      18028.0      107.493
      18040.5      107.094
      18053.1      106.666
      18065.6      106.259
      18078.2      105.827
      18090.7      105.416
      18103.3      104.992
      18115.8      104.576
      18128.4      104.157
      18140.9      103.742
      18153.5      103.322
      18166.0      102.903
      18178.6      102.482
      18191.1      102.053
      18203.6      101.801
      18216.2      101.797
      18228.7      101.800
      18241.3      101.826
      18253.8      101.824
      18266.4      101.850
      18278.9      101.874
      18291.5      101.880
      18304.0      101.907
      18316.6      101.909
      18329.1      101.935
      18341.7      101.951
      18354.2      101.961
      18366.8      101.986
      18379.3      101.990
      18391.9      102.010
      18404.4      101.964
      18416.9      101.813
      18429.5      101.673
      18442.0      101.517
      18454.6      101.366
      18467.1      101.207
      18479.7      101.075
      18492.2      100.912
      18504.8      100.756
      18517.3      100.619
      18529.9      100.461
      18542.4      100.301
      18555.0      100.159
      18567.5      100.000
      18580.1      99.8646
      18592.6      99.6959
      18605.2      99.4331
      18617.7      99.0456
      18630.3      98.6422
      18642.8      98.2124
      18655.3      97.8173
      18667.9      97.4157
      18680.4      97.0027
      18693.0      96.5950
      18705.5      96.1874
      18718.1      95.7800
      18730.6      95.3777
      18743.2      94.9591
      18755.7      94.5548
      18768.3      94.1504
      18780.8      93.7492
      18793.4      93.3314
      18805.9      93.1707
      18818.5      93.2126
      18831.0      93.2819
      18843.6      93.3522
      18856.1      93.4074
      18868.7      93.4836
      18881.2      93.5376
      18893.7      93.6177
      18906.3      93.6650
      18918.8      93.7419
      18931.4      93.8112
      18943.9      93.8724
      18956.5      93.9429
      18969.0      94.0017
      18981.6      94.0656
      18994.1      94.1239
      19006.7      94.0769
      19019.2      93.9220
      19031.8      93.7417
      19044.3      93.5984
      19056.9      93.4210
      19069.4      93.2612
      19082.0      93.0977
      19094.5      92.9342
      19107.0      92.7764
      19119.6      92.6085
      19132.1      92.4366
      19144.7      92.2803
      19157.2      92.1232
      19169.8      91.9392
      19182.3      91.7895
      19194.9      91.6254
      19207.4      91.4073
      19220.0      91.1572
      19232.5      90.9098
      19245.1      90.6518
      19257.6      90.3994
      19270.2      90.1504
      19282.7      89.8857
      19295.3      89.6513
      19307.8      89.3803
      19320.4      89.1444
      19332.9      88.8791
      19345.4      88.6280
      19358.0      88.3800
      19370.5      88.1262
      19383.1      87.8760
      19395.6      87.6210
      19408.2      87.4909
      19420.7      87.4153
      19433.3      87.3289
      19445.8      87.2532
      19458.4      87.1885
      19470.9      87.1096
      19483.5      87.0329
      19496.0      86.9620
      19508.6      86.8891
      19521.1      86.8075
      19533.7      86.7300
      19546.2      86.6582
      19558.7      86.5860
      19571.3      86.5101
      19583.8      86.4356
      19596.4      86.3562
      19608.9      86.2779
      19621.5      86.1986
      19634.0      86.1015
      19646.6      86.0227
      19659.1      85.9354
      19671.7      85.8569
      19684.2      85.7663
      19696.8      85.6883
      19709.3      85.5977
      19721.9      85.5148
      19734.4      85.4343
      19747.0      85.3352
      19759.5      85.2622
      19772.1      85.1726
      19784.6      85.0966
      19797.1      85.0015
      19809.7      84.8496
      19822.2      84.6832
      19834.8      84.5158
      19847.3      84.3382
      19859.9      84.1617
      19872.4      83.9925
      19885.0      83.8206
      19897.5      83.6464
      19910.1      83.4875
      19922.6      83.3034
      19935.2      83.1295
      19947.7      82.9616
      19960.3      82.7910
      19972.8      82.6132
      19985.4      82.4445
      19997.9      82.2811
      20010.5      82.1281
      20023.0      81.9927
      20035.5      81.8682
      20048.1      81.7195
      20060.6      81.5901
      20073.2      81.4505
      20085.7      81.3155
      20098.3      81.1794
      20110.8      81.0395
      20123.4      80.9070
      20135.9      80.7762
      20148.5      80.6345
      20161.0      80.4983
      20173.6      80.3700
      20186.1      80.2229
      20198.7      80.0886
      20211.2      79.9675
      20223.8      79.8227
      20236.3      79.6899
      20248.8      79.5639
      20261.4      79.4207
      20273.9      79.2942
      20286.5      79.1594
      20299.0      79.0361
      20311.6      78.8907
      20324.1      78.7566
      20336.7      78.6337
      20349.2      78.4982
      20361.8      78.3587
      20374.3      78.2298
      20386.9      78.0989
      20399.4      77.9665
      20412.0      77.8343
      20424.5      77.6932
      20437.1      77.5649
      20449.6      77.4300
      20462.1      77.2989
      20474.7      77.1572
      20487.2      77.0266
      20499.8      76.8935
      20512.3      76.7593
      20524.9      76.6206
      20537.4      76.4858
      20550.0      76.3581
      20562.5      76.2258
      20575.1      76.0853
      20587.6      75.9512
      20600.2      75.8309
      20612.7      75.6925
      20625.3      75.5807
      20637.8      75.4639
      20650.4      75.3479
      20662.9      75.2279
      20675.5      75.1011
      20688.0      74.9836
      20700.5      74.8730
      20713.1      74.7495
      20725.6      74.6277
      20738.2      74.5043
      20750.7      74.3848
      20763.3      74.2706
      20775.8      74.1572
      20788.4      74.0368
      20800.9      73.9060
      20813.5      73.7835
      20826.0      73.6555
      20838.6      73.5207
      20851.1      73.3996
      20863.7      73.2618
      20876.2      73.1383
      20888.8      73.0099
      20901.3      72.8808
      20913.9      72.7425
      20926.4      72.6250
      20938.9      72.4824
      20951.5      72.3602
      20964.0      72.2365
      20976.6      72.1059
      20989.1      71.9744
      21001.7      71.8419
      21014.2      71.7224
      21026.8      71.6113
      21039.3      71.4825
      21051.9      71.3748
      21064.4      71.2536
      21077.0      71.1294
      21089.5      71.0141
      21102.1      70.9013
      21114.6      70.7794
      21127.2      70.6553
      21139.7      70.5403
      21152.3      70.4275
      21164.8      70.3053
      21177.3      70.1865
      21189.9      70.0698
      21202.4      69.9453
      21215.0      69.8457
      21227.5      69.7397
      21240.1      69.6358
      21252.6      69.5186
      21265.2      69.4157
      21277.7      69.3089
      21290.3      69.2004
      21302.8      69.1023
      21315.4      68.9845
      21327.9      68.8822
      21340.5      68.7794
      21353.0      68.6624
      21365.6      68.5579
      21378.1      68.4525
      21390.6      68.3530
      21403.2      68.1957
      21415.7      67.9751
      21428.3      67.7511
      21440.8      67.5221
      21453.4      67.2870
      21465.9      67.0544
      21478.5      66.8229
      21491.0      66.5935
      21503.6      66.3725
      21516.1      66.1297
      21528.7      65.9059
      21541.2      65.6775
      21553.8      65.4476
      21566.3      65.2140
      21578.9      64.9799
      21591.4      64.7547
      21604.0      64.5975
      21616.5      64.5384
      21629.0      64.5039
      21641.6      64.4567
      21654.1      64.4187
      21666.7      64.3826
      21679.2      64.3373
      21691.8      64.2906
      21704.3      64.2562
      21716.9      64.2133
      21729.4      64.1709
      21742.0      64.1342
      21754.5      64.0892
      21767.1      64.0531
      21779.6      64.0075
      21792.2      63.9656
      21804.7      63.9319
      21817.3      63.8984
      21829.8      63.8603
      21842.4      63.8255
      21854.9      63.7873
      21867.4      63.7627
      21880.0      63.7186
      21892.5      63.6861
      21905.1      63.6511
      21917.6      63.6127
      21930.2      63.5864
      21942.7      63.5462
      21955.3      63.5133
      21967.8      63.4744
      21980.4      63.4466
      21992.9      63.4069
      22005.5      63.3472
      22018.0      63.2608
      22030.6      63.1659
      22043.1      63.0762
      22055.7      62.9879
      22068.2      62.8980
      22080.7      62.8098
      22093.3      62.7178
      22105.8      62.6307
      22118.4      62.5329
      22130.9      62.4502
      22143.5      62.3500
      22156.0      62.2683
      22168.6      62.1698
      22181.1      62.0904
      22193.7      61.9886
      22206.2      61.9044
      22218.8      61.8162
      22231.3      61.7194
      22243.9      61.6386
      22256.4      61.5427
      22269.0      61.4520
      22281.5      61.3576
      22294.1      61.2697
      22306.6      61.1805
      22319.1      61.0876
      22331.7      61.0058
      22344.2      60.9113
      22356.8      60.8178
      22369.3      60.7294
      22381.9      60.6357
      22394.4      60.5524
      22407.0      60.4568
      22419.5      60.3721
      22432.1      60.2885
      22444.6      60.1943
      22457.2      60.1172
      22469.7      60.0217
      22482.3      59.9301
      22494.8      59.8498
      22507.4      59.7565
      22519.9      59.6713
      22532.5      59.5875
      22545.0      59.4929
      22557.5      59.4086
      22570.1      59.3170
      22582.6      59.2390
      22595.2      59.1422
      22607.7      59.0627
      22620.3      58.9811
      22632.8      58.9026
      22645.4      58.8123
      22657.9      58.7276
      22670.5      58.6531
      22683.0      58.5717
      22695.6      58.4894
      22708.1      58.4020
      22720.7      58.3258
      22733.2      58.2347
      22745.8      58.1573
      22758.3      58.0809
      22770.8      57.9918
      22783.4      57.9132
      22795.9      57.8303
      22808.5      57.7557
      22821.0      57.6762
      22833.6      57.5959
      22846.1      57.5190
      22858.7      57.4478
      22871.2      57.3728
      22883.8      57.2936
      22896.3      57.2158
      22908.9      57.1433
      22921.4      57.0721
      22934.0      56.9881
      22946.5      56.9147
      22959.1      56.8343
      22971.6      56.7628
      22984.2      56.6856
      22996.7      56.6125
      23009.2      56.5321
      23021.8      56.4500
      23034.3      56.3732
      23046.9      56.2963
      23059.4      56.2148
      23072.0      56.1427
      23084.5      56.0615
      23097.1      55.9824
      23109.6      55.9027
      23122.2      55.8320
      23134.7      55.7444
      23147.3      55.6684
      23159.8      55.5962
      23172.4      55.5075
      23184.9      55.4375
      23197.5      55.3599
      23210.0      55.2777
      23222.5      55.2030
      23235.1      55.1351
      23247.6      55.0599
      23260.2      54.9781
      23272.7      54.9061
      23285.3      54.8320
      23297.8      54.7572
      23310.4      54.6806
      23322.9      54.6086
      23335.5      54.5367
      23348.0      54.4526
      23360.6      54.3815
      23373.1      54.3134
      23385.7      54.2313
      23398.2      54.1603
      23410.8      54.0896
      23423.3      54.0134
      23435.8      53.9485
      23448.4      53.8719
      23460.9      53.8004
      23473.5      53.7350
      23486.0      53.6557
      23498.6      53.5887
      23511.1      53.5172
      23523.7      53.4464
      23536.2      53.3802
      23548.8      53.2998
      23561.3      53.2305
      23573.9      53.1620
      23586.4      53.0908
      23599.0      53.0219
      23611.5      52.9424
      23624.1      52.8714
      23636.6      52.7925
      23649.2      52.7156
      23661.7      52.6376
      23674.2      52.5682
      23686.8      52.4898
      23699.3      52.4154
      23711.9      52.3356
      23724.4      52.2607
      23737.0      52.1829
      23749.5      52.1120
      23762.1      52.0351
      23774.6      51.9527
      23787.2      51.8879
      23799.7      51.8023
      23812.3      51.7364
      23824.8      51.6624
      23837.4      51.5916
      23849.9      51.5152
      23862.5      51.4450
      23875.0      51.3718
      23887.6      51.3065
      23900.1      51.2276
      23912.6      51.1585
      23925.2      51.0827
      23937.7      51.0109
      23950.3      50.9472
      23962.8      50.8659
      23975.4      50.7923
      23987.9      50.7244
      24000.5      50.6582
      24013.0      50.5969
      24025.6      50.5301
      24038.1      50.4756
      24050.7      50.4099
      24063.2      50.3508
      24075.8      50.2976
      24088.3      50.2276
      24100.9      50.1751
      24113.4      50.1126
      24126.0      50.0519
      24138.5      49.9906
      24151.0      49.9348
      24163.6      49.8723
      24176.1      49.8122
      24188.7      49.7522
      24201.2      49.6888
      24213.8      49.6174
      24226.3      49.5351
      24238.9      49.4661
      24251.4      49.3878
      24264.0      49.3168
      24276.5      49.2420
      24289.1      49.1624
      24301.6      49.0826
      24314.2      49.0185
      24326.7      48.9327
      24339.3      48.8655
      24351.8      48.7911
      24364.4      48.7079
      24376.9      48.6332
      24389.4      48.5640
      24402.0      48.4914
      24414.5      48.4266
      24427.1      48.3649
      24439.6      48.3073
      24452.2      48.2508
      24464.7      48.1866
      24477.3      48.1238
      24489.8      48.0642
      24502.4      48.0034
      24514.9      47.9486
      24527.5      47.8819
      24540.0      47.8229
      24552.6      47.7631
      24565.1      47.7009
      24577.7      47.6403
      24590.2      47.5861
      24602.7      47.5136
      24615.3      47.4560
      24627.8      47.3876
      24640.4      47.3281
      24652.9      47.2585
      24665.5      47.1972
      24678.0      47.1312
      24690.6      47.0685
      24703.1      47.0012
      24715.7      46.9366
      24728.2      46.8740
      24740.8      46.8077
      24753.3      46.7429
      24765.9      46.6782
      24778.4      46.6135
      24791.0      46.5487
      24803.5      46.4846
      24816.0      46.4211
      24828.6      46.3559
      24841.1      46.2977
      24853.7      46.2295
      24866.2      46.1715
      24878.8      46.1080
      24891.3      46.0425
      24903.9      45.9784
      24916.4      45.9173
      24929.0      45.8497
      24941.5      45.7945
      24954.1      45.7225
      24966.6      45.6673
      24979.2      45.6034
      24991.7      45.5378
      25004.3      45.4737
      25016.8      45.4077
      25029.4      45.3563
      25041.9      45.2913
      25054.4      45.2220
      25067.0      45.1696
      25079.5      45.1028
      25092.1      45.0457
      25104.6      44.9781
      25117.2      44.9213
      25129.7      44.8535
      25142.3      44.7993
      25154.8      44.7301
      25167.4      44.6715
      25179.9      44.6093
      25192.5      44.5503
      25205.0      44.4883
      25217.6      44.4252
      25230.1      44.3682
      25242.7      44.3084
      25255.2      44.2457
      25267.8      44.1820
      25280.3      44.1276
      25292.8      44.0656
      25305.4      44.0029
      25317.9      43.9434
      25330.5      43.8875
      25343.0      43.8270
      25355.6      43.7616
      25368.1      43.7000
      25380.7      43.6466
      25393.2      43.5842
      25405.8      43.5182
      25418.3      43.4650
      25430.9      43.3982
      25443.4      43.3384
      25456.0      43.2768
      25468.5      43.2100
      25481.1      43.1534
      25493.6      43.0924
      25506.1      43.0311
      25518.7      42.9716
      25531.2      42.9030
      25543.8      42.8461
      25556.3      42.7873
      25568.9      42.7193
      25581.4      42.6622
      25594.0      42.6165
