# spectrum  Type     U-V    B-V    V-R    V-I    V-J    V-K
# ---------------------------------------------------------
#  bpgs_7  B3V     -0.88  -0.21  -0.07  -0.15  -0.48  -0.61
#
# lambda (Angstroms)  flux (phot/lambda)
#----------------------------------------------------------
PHOTLAM
      512.023    0.0257341
      524.570    0.0425755
      537.117    0.0609814
      549.664    0.0899556
      562.212     0.123374
      574.759     0.161428
      587.306     0.208062
      599.853     0.294379
      612.401     0.390337
      624.948     0.505831
      637.495     0.627135
      650.042     0.795161
      662.590     0.979271
      675.137      1.20581
      687.684      1.51136
      700.231      1.81939
      712.779      2.19272
      725.326      2.60766
      737.873      3.07491
      750.420      3.72271
      762.968      4.38575
      775.515      5.13221
      788.062      5.98381
      800.609      6.83583
      813.157      7.75788
      825.704      8.85021
      838.251      9.95028
      850.798      11.1567
      863.346      12.8621
      875.893      14.6311
      888.440      18.5342
      900.987      44.6477
      913.535      76.6543
      926.082      567.916
      938.629      1567.06
      951.177      2762.11
      963.724      3925.72
      976.271      4799.16
      988.818      5547.39
      1001.37      5948.39
      1013.91      6342.77
      1026.46      6817.18
      1039.01      7329.06
      1051.55      7943.26
      1064.10      8376.30
      1076.65      8195.96
      1089.20      8065.64
      1101.74      8242.25
      1114.29      8510.67
      1126.84      8836.88
      1139.39      9036.13
      1151.93      9159.01
      1164.48      9033.62
      1177.03      8461.15
      1189.57      6829.34
      1202.12      4680.05
      1214.67      2210.14
      1227.22      3278.64
      1239.76      6643.02
      1252.31      7543.23
      1264.86      7955.49
      1277.41      8249.63
      1289.95      7716.92
      1302.50      7253.03
      1315.05      7830.46
      1327.59      7895.24
      1340.14      7591.85
      1352.69      7419.70
      1365.24      7196.87
      1377.78      6866.66
      1390.33      6412.74
      1402.88      6188.49
      1415.42      6667.46
      1427.97      7069.40
      1440.52      7352.77
      1453.07      7384.43
      1465.61      7286.79
      1478.16      7078.25
      1490.71      6914.99
      1503.26      6783.58
      1515.80      6698.85
      1528.35      6705.20
      1540.90      6729.89
      1553.44      6616.30
      1565.99      6502.80
      1578.54      6388.41
      1591.09      6075.71
      1603.63      5814.81
      1616.18      5775.30
      1628.73      5794.61
      1641.28      5776.79
      1653.82      5504.64
      1666.37      5457.10
      1678.92      5628.10
      1691.46      5572.49
      1704.01      5495.35
      1716.56      5475.07
      1729.11      5373.40
      1741.65      5243.51
      1754.20      5145.69
      1766.75      5049.16
      1779.30      4950.86
      1791.84      4850.43
      1804.39      4749.07
      1816.94      4643.14
      1829.48      4463.68
      1842.03      4328.88
      1854.58      4437.59
      1867.13      4371.97
      1879.67      4175.09
      1892.22      4100.80
      1904.77      4022.33
      1917.32      3902.51
      1929.86      3792.85
      1942.41      3725.79
      1954.96      3772.42
      1967.50      3694.69
      1980.05      3559.93
      1992.60      3627.87
      2005.15      3618.93
      2017.69      3458.52
      2030.24      3352.29
      2042.79      3283.41
      2055.33      3266.46
      2067.88      3216.77
      2080.43      3155.24
      2092.98      3151.15
      2105.52      3155.31
      2118.07      3155.08
      2130.62      3104.58
      2143.17      3058.11
      2155.71      3058.27
      2168.26      3034.39
      2180.81      2995.65
      2193.35      2957.00
      2205.90      2922.26
      2218.45      2895.12
      2231.00      2902.26
      2243.54      2902.70
      2256.09      2868.09
      2268.64      2831.29
      2281.19      2799.44
      2293.73      2790.75
      2306.28      2792.33
      2318.83      2800.74
      2331.37      2801.36
      2343.92      2809.31
      2356.47      2834.14
      2369.02      2825.86
      2381.56      2799.83
      2394.11      2765.18
      2406.66      2782.77
      2419.20      2841.47
      2431.75      2850.08
      2444.30      2845.63
      2456.85      2837.04
      2469.39      2820.18
      2481.94      2797.19
      2494.49      2764.88
      2507.04      2722.26
      2519.58      2676.28
      2532.13      2659.67
      2544.68      2644.38
      2557.22      2622.52
      2569.77      2604.08
      2582.32      2596.56
      2594.87      2619.11
      2607.41      2640.38
      2619.96      2650.04
      2632.51      2603.99
      2645.06      2558.26
      2657.60      2530.20
      2670.15      2550.60
      2682.70      2574.81
      2695.24      2564.07
      2707.79      2570.49
      2720.34      2577.74
      2732.89      2522.52
      2745.43      2484.93
      2757.98      2482.67
      2770.53      2481.40
      2783.07      2465.62
      2795.62      2413.72
      2808.17      2379.99
      2820.72      2361.82
      2833.26      2363.08
      2845.81      2357.42
      2858.36      2342.34
      2870.91      2347.21
      2883.45      2345.41
      2896.00      2316.72
      2908.55      2281.33
      2921.09      2248.91
      2933.64      2242.48
      2946.19      2221.72
      2958.74      2186.82
      2971.28      2187.32
      2983.83      2187.24
      2996.38      2169.21
      3008.93      2174.64
      3021.47      2184.44
      3034.02      2167.23
      3046.57      2155.21
      3059.11      2150.48
      3071.66      2145.09
      3084.21      2144.49
      3096.76      2153.17
      3109.30      2166.59
      3121.85      2174.52
      3134.40      2156.89
      3146.95      2132.49
      3159.49      2105.71
      3172.04      2089.69
      3184.59      2080.99
      3197.13      2080.88
      3209.68      2081.35
      3222.23      2080.20
      3234.78      2073.84
      3247.32      2090.29
      3259.87      2117.70
      3272.42      2080.96
      3284.97      2047.92
      3297.51      2029.14
      3310.06      2006.67
      3322.61      2018.43
      3335.15      1991.54
      3347.70      1974.84
      3360.25      1981.80
      3372.80      1922.45
      3385.34      1928.43
      3397.89      1904.72
      3410.44      1914.74
      3422.98      1884.53
      3435.53      1874.05
      3448.08      1858.79
      3460.63      1826.18
      3473.17      1819.66
      3485.72      1802.18
      3498.27      1786.32
      3510.82      1750.47
      3523.36      1786.07
      3535.91      1780.56
      3548.46      1786.39
      3561.00      1774.82
      3573.55      1756.04
      3586.10      1736.74
      3598.65      1724.28
      3611.19      1726.38
      3623.74      1690.45
      3636.29      1675.08
      3648.84      1680.76
      3661.38      1653.07
      3673.93      1640.20
      3686.48      1634.56
      3699.02      1624.23
      3711.57      1625.19
      3724.12      1645.87
      3736.67      1666.74
      3749.21      1731.19
      3761.76      1771.67
      3774.31      1817.13
      3786.86      1888.92
      3799.40      1806.70
      3811.95      2015.20
      3824.50      1955.00
      3837.04      1766.62
      3849.59      2058.03
      3862.14      2219.18
      3874.69      2084.93
      3887.23      1784.59
      3899.78      1901.53
      3912.33      2156.09
      3924.87      2164.34
      3937.42      2160.71
      3949.97      2121.79
      3962.52      1845.32
      3975.06      1756.66
      3987.61      2043.78
      4000.16      2152.72
      4012.71      2097.80
      4025.25      2057.88
      4037.80      2136.54
      4050.35      2175.08
      4062.89      2157.36
      4075.44      2125.67
      4087.99      1961.82
      4100.54      1677.41
      4113.08      1826.53
      4125.63      2039.90
      4138.18      2014.61
      4150.73      2000.61
      4163.27      2022.24
      4175.82      2020.44
      4188.37      2012.97
      4200.91      2002.23
      4213.46      2002.04
      4226.01      1992.72
      4238.56      1975.56
      4251.10      1965.49
      4263.65      1924.97
      4276.20      1934.19
      4288.74      1922.48
      4301.29      1889.77
      4313.84      1839.89
      4326.39      1674.80
      4338.93      1458.57
      4351.48      1594.70
      4364.03      1808.67
      4376.58      1794.33
      4389.12      1779.78
      4401.67      1808.87
      4414.22      1781.27
      4426.76      1750.01
      4439.31      1728.64
      4451.86      1709.46
      4464.41      1651.99
      4476.95      1618.97
      4489.50      1659.22
      4502.05      1666.59
      4514.60      1658.40
      4527.14      1656.36
      4539.69      1631.25
      4552.24      1625.99
      4564.78      1609.06
      4577.33      1588.94
      4589.88      1579.53
      4602.43      1563.86
      4614.97      1553.91
      4627.52      1542.58
      4640.07      1529.98
      4652.62      1524.89
      4665.16      1499.72
      4677.71      1488.33
      4690.26      1486.21
      4702.81      1478.19
      4715.35      1464.77
      4727.90      1455.73
      4740.45      1438.71
      4752.99      1433.28
      4765.54      1425.80
      4778.09      1410.14
      4790.64      1402.42
      4803.18      1390.96
      4815.73      1380.23
      4828.28      1372.23
      4840.82      1320.92
      4853.37      1162.95
      4865.92      1091.45
      4878.47      1251.95
      4891.01      1314.43
      4903.56      1301.13
      4916.11      1277.79
      4928.66      1268.64
      4941.20      1295.00
      4953.75      1292.24
      4966.30      1287.29
      4978.84      1278.64
      4991.39      1271.67
      5003.94      1251.96
      5016.49      1243.06
      5029.03      1248.37
      5041.58      1232.52
      5054.13      1208.88
      5066.67      1205.32
      5079.22      1198.65
      5091.77      1179.53
      5104.32      1163.63
      5116.86      1166.65
      5129.41      1161.24
      5141.96      1159.50
      5154.51      1159.63
      5167.05      1162.14
      5179.60      1154.70
      5192.15      1147.91
      5204.69      1136.55
      5217.24      1122.14
      5229.79      1116.98
      5242.34      1109.30
      5254.88      1099.05
      5267.43      1099.67
      5279.98      1092.73
      5292.53      1088.96
      5305.07      1083.20
      5317.62      1075.00
      5330.17      1065.15
      5342.71      1060.47
      5355.26      1058.09
      5367.81      1053.63
      5380.36      1042.56
      5392.90      1036.14
      5405.45      1032.30
      5418.00      1022.77
      5430.55      1014.31
      5443.09      1006.15
      5455.64      1002.36
      5468.19      988.562
      5480.73      991.117
      5493.28      989.506
      5505.83      978.920
      5518.38      971.536
      5530.92      960.537
      5543.47      956.729
      5556.02      954.295
      5568.57      953.242
      5581.11      948.346
      5593.66      948.030
      5606.21      945.628
      5618.75      949.355
      5631.30      932.574
      5643.85      933.692
      5656.40      930.200
      5668.94      937.211
      5681.49      930.249
      5694.04      931.210
      5706.58      918.467
      5719.13      918.316
      5731.68      917.901
      5744.23      902.479
      5756.77      902.212
      5769.32      897.036
      5781.87      890.359
      5794.41      886.429
      5806.96      884.633
      5819.51      883.506
      5832.06      875.834
      5844.60      868.122
      5857.15      861.981
      5869.70      848.586
      5882.25      837.049
      5894.79      839.734
      5907.34      840.889
      5919.89      839.513
      5932.44      834.652
      5944.98      829.449
      5957.53      824.622
      5970.08      819.583
      5982.62      814.868
      5995.17      811.354
      6007.72      808.804
      6020.27      805.270
      6032.81      793.254
      6045.36      786.235
      6057.91      787.553
      6070.45      789.995
      6083.00      792.231
      6095.55      793.127
      6108.10      791.580
      6120.64      786.583
      6133.19      771.646
      6145.74      761.051
      6158.29      756.472
      6170.83      746.712
      6183.38      739.322
      6195.93      740.615
      6208.47      740.063
      6221.02      737.122
      6233.57      729.138
      6246.12      721.263
      6258.66      714.429
      6271.21      710.634
      6283.76      709.681
      6296.30      712.508
      6308.85      706.833
      6321.40      698.674
      6333.95      697.525
      6346.49      695.129
      6359.04      691.187
      6371.59      689.635
      6384.14      688.347
      6396.68      686.661
      6409.23      683.806
      6421.78      680.846
      6434.32      679.057
      6446.87      674.541
      6459.42      667.966
      6471.97      663.519
      6484.51      659.051
      6497.06      653.687
      6509.61      645.756
      6522.16      633.569
      6534.70      611.595
      6547.25      592.693
      6559.80      581.784
      6572.34      600.694
      6584.89      620.278
      6597.44      631.801
      6609.99      634.335
      6622.53      633.546
      6635.08      632.498
      6647.63      625.067
      6660.18      614.300
      6672.72      609.309
      6685.27      607.012
      6697.82      606.892
      6710.36      606.449
      6722.91      605.576
      6735.46      604.097
      6748.01      603.540
      6760.55      603.144
      6773.10      600.531
      6785.65      599.648
      6798.20      601.432
      6810.74      604.758
      6823.29      611.574
      6835.84      624.193
      6848.38      610.229
      6860.93      583.656
      6873.48      567.641
      6886.03      563.987
      6898.57      571.953
      6911.12      578.231
      6923.67      579.409
      6936.21      571.163
      6948.76      566.584
      6961.31      563.492
      6973.86      558.318
      6986.40      552.772
      6998.95      547.900
      7011.50      549.697
      7024.05      549.287
      7036.59      542.164
      7049.14      538.840
      7061.69      537.118
      7074.23      534.389
      7086.78      532.570
      7099.33      531.602
      7111.88      530.124
      7124.42      526.833
      7136.97      521.017
      7149.52      519.531
      7162.07      518.760
      7174.61      514.834
      7187.16      512.549
      7199.71      511.445
      7212.25      508.246
      7224.80      502.321
      7237.35      493.186
      7249.90      488.569
      7262.44      487.159
      7274.99      489.748
      7287.54      491.883
      7300.09      493.030
      7312.63      491.865
      7325.18      489.546
      7337.73      486.289
      7350.27      484.081
      7362.82      482.957
      7375.37      483.664
      7387.92      481.049
      7400.46      476.842
      7413.01      475.256
      7425.56      473.239
      7438.11      470.322
      7450.65      468.053
      7463.20      465.755
      7475.75      462.759
      7488.29      459.093
      7500.84      457.476
      7513.39      466.584
      7525.94      476.470
      7538.48      485.376
      7551.03      492.032
      7563.58      490.074
      7576.12      470.824
      7588.67      431.252
      7601.22      398.026
      7613.77      429.651
      7626.31      446.481
      7638.86      441.467
      7651.41      441.525
      7663.96      432.822
      7676.50      406.454
      7689.05      407.312
      7701.60      418.918
      7714.15      422.048
      7726.69      423.339
      7739.24      423.834
      7751.79      424.133
      7764.33      422.118
      7776.88      416.491
      7789.43      413.997
      7801.98      413.404
      7814.52      414.445
      7827.07      413.274
      7839.62      410.547
      7852.16      410.017
      7864.71      408.753
      7877.26      405.699
      7889.81      403.119
      7902.35      401.648
      7914.90      402.796
      7927.45      401.788
      7939.99      399.170
      7952.54      396.986
      7965.09      396.597
      7977.64      398.564
      7990.18      400.599
      8002.73      401.159
      8015.28      398.053
      8027.83      397.616
      8040.37      399.221
      8052.92      401.217
      8065.47      401.310
      8078.02      398.689
      8090.56      393.634
      8103.11      389.696
      8115.66      390.210
      8128.20      390.313
      8140.75      389.248
      8153.30      384.833
      8165.85      383.534
      8178.39      385.931
      8190.94      385.616
      8203.49      383.742
      8216.03      380.364
      8228.58      380.767
      8241.13      383.040
      8253.68      384.385
      8266.22      379.497
      8278.77      369.153
      8291.32      364.558
      8303.86      364.699
      8316.41      370.265
      8328.96      361.292
      8341.51      348.733
      8354.05      349.004
      8366.60      354.453
      8379.15      361.735
      8391.70      357.722
      8404.24      352.993
      8416.79      351.702
      8429.34      352.100
      8441.88      352.109
      8454.43      348.674
      8466.98      344.925
      8479.53      342.040
      8492.07      344.359
      8504.62      345.365
      8517.17      343.130
      8529.72      347.092
      8542.26      348.867
      8554.81      337.229
      8567.36      334.480
      8579.90      338.951
      8592.45      341.618
      8605.00      344.666
      8617.55      348.163
      8630.09      344.976
      8642.64      337.992
      8655.19      327.521
      8667.73      327.194
      8680.28      334.714
      8692.83      346.874
      8705.38      350.593
      8717.92      342.363
      8730.47      331.762
      8743.02      323.387
      8755.57      322.205
      8768.11      324.952
      8780.66      330.998
      8793.21      342.423
      8805.76      344.749
      8818.30      334.986
      8830.85      319.755
      8843.40      307.705
      8855.94      305.974
      8868.49      309.710
      8881.04      316.168
      8893.59      322.365
      8906.13      329.232
      8918.68      335.644
      8931.23      331.817
      8943.78      326.822
      8956.32      324.591
      8968.87      316.183
      8981.42      302.714
      8993.96      282.775
      9006.51      280.129
      9019.06      294.905
      9031.61      314.433
      9044.15      322.898
      9056.70      310.490
      9069.25      302.535
      9081.80      299.748
      9094.34      306.010
      9106.89      307.834
      9119.44      304.249
      9131.98      295.231
      9144.53      288.969
      9157.08      289.365
      9169.63      297.466
      9182.17      305.003
      9194.72      301.545
      9207.27      289.649
      9219.81      275.101
      9232.36      277.604
      9244.91      284.348
      9257.46      292.902
      9270.00      308.688
      9282.55      318.055
      9295.10      303.198
      9307.65      289.119
      9320.19      282.069
      9332.74      300.818
      9345.29      303.146
      9357.83      280.941
      9370.38      286.867
      9382.93      303.645
      9395.48      322.256
      9408.02      310.303
      9420.57      282.442
      9433.12      269.264
      9445.66      268.562
      9458.21      279.841
      9470.76      290.588
      9483.31      294.166
      9495.85      282.655
      9508.40      274.340
      9520.95      268.873
      9533.50      265.927
      9546.04      269.492
      9558.59      278.820
      9571.14      280.382
      9583.69      279.598
      9596.23      278.310
      9608.78      274.861
      9621.33      271.236
      9633.87      270.940
      9646.42      271.842
      9658.97      272.666
      9671.52      268.215
      9684.06      264.049
      9696.61      263.052
      9709.16      266.104
      9721.71      269.725
      9734.25      269.024
      9746.80      265.690
      9759.35      261.633
      9771.89      264.454
      9784.44      267.015
      9796.99      266.344
      9809.53      261.406
      9822.08      257.225
      9834.63      260.345
      9847.18      258.771
      9859.72      253.875
      9872.27      254.726
      9884.82      255.988
      9897.37      255.892
      9909.91      252.309
      9922.46      250.136
      9935.01      255.290
      9947.55      254.595
      9960.10      250.307
      9972.65      251.305
      9985.20      252.821
      9997.74      252.922
      10010.3      244.583
      10022.8      232.636
      10035.4      219.569
      10047.9      217.476
      10060.5      224.180
      10073.0      238.062
      10085.6      243.531
      10098.1      238.160
      10110.7      240.264
      10123.2      241.729
      10135.8      236.527
      10148.3      234.459
      10160.9      233.918
      10173.4      230.895
      10186.0      229.501
      10198.5      229.818
      10211.0      226.807
      10223.6      226.518
      10236.1      233.441
      10248.7      235.861
      10261.2      235.214
      10273.8      232.581
      10286.3      228.559
      10298.9      224.009
      10311.4      224.022
      10324.0      225.784
      10336.5      228.217
      10349.1      226.898
      10361.6      224.281
      10374.2      223.573
      10386.7      224.739
      10399.3      226.563
      10411.8      223.216
      10424.4      221.670
      10436.9      224.639
      10449.4      222.851
      10462.0      220.342
      10474.5      222.311
      10487.1      223.009
      10499.6      221.833
      10512.2      217.794
      10524.7      214.853
      10537.3      214.816
      10549.8      217.962
      10562.4      221.474
      10574.9      222.572
      10587.5      220.457
      10600.0      216.724
      10612.6      215.538
      10625.1      214.844
      10637.7      214.183
      10650.2      213.504
      10662.7      212.808
      10675.3      212.142
      10687.8      211.445
      10700.4      210.778
      10712.9      210.076
      10725.5      209.422
      10738.0      208.720
      10750.6      208.039
      10763.1      207.364
      10775.7      206.686
      10788.2      206.016
      10800.8      205.294
      10813.3      204.535
      10825.9      203.733
      10838.4      202.949
      10851.0      202.160
      10863.5      201.380
      10876.1      200.580
      10888.6      199.803
      10901.1      199.012
      10913.7      198.232
      10926.2      197.433
      10938.8      196.653
      10951.3      195.852
      10963.9      195.071
      10976.4      194.283
      10989.0      193.497
      11001.5      192.705
      11014.1      191.861
      11026.6      191.038
      11039.2      190.203
      11051.7      189.356
      11064.3      188.542
      11076.8      187.689
      11089.4      186.865
      11101.9      186.035
      11114.4      185.187
      11127.0      184.365
      11139.5      183.521
      11152.1      182.697
      11164.6      181.861
      11177.2      181.016
      11189.7      180.197
      11202.3      179.362
      11214.8      178.518
      11227.4      177.695
      11239.9      176.859
      11252.5      176.027
      11265.0      175.204
      11277.6      174.371
      11290.1      173.523
      11302.7      172.710
      11315.2      171.871
      11327.8      171.039
      11340.3      170.202
      11352.8      169.381
      11365.4      168.549
      11377.9      167.712
      11390.5      166.880
      11403.0      166.057
      11415.6      165.263
      11428.1      164.487
      11440.7      163.684
      11453.2      162.897
      11465.8      162.103
      11478.3      161.305
      11490.9      160.520
      11503.4      159.725
      11516.0      158.946
      11528.5      158.140
      11541.1      157.358
      11553.6      156.555
      11566.1      155.777
      11578.7      154.982
      11591.2      154.187
      11603.8      153.429
      11616.3      152.693
      11628.9      151.968
      11641.4      151.256
      11654.0      150.525
      11666.5      149.812
      11679.1      149.082
      11691.6      148.359
      11704.2      147.633
      11716.7      146.907
      11729.3      146.190
      11741.8      145.471
      11754.4      144.743
      11766.9      144.022
      11779.5      143.296
      11792.0      142.581
      11804.5      141.882
      11817.1      141.259
      11829.6      140.612
      11842.2      139.981
      11854.7      139.339
      11867.3      138.714
      11879.8      138.080
      11892.4      137.436
      11904.9      136.806
      11917.5      136.167
      11930.0      135.535
      11942.6      134.904
      11955.1      134.264
      11967.7      133.631
      11980.2      132.993
      11992.8      132.359
      12005.3      131.765
      12017.9      131.241
      12030.4      130.695
      12042.9      130.164
      12055.5      129.628
      12068.0      129.098
      12080.6      128.560
      12093.1      128.025
      12105.7      127.491
      12118.2      126.951
      12130.8      126.425
      12143.3      125.887
      12155.9      125.349
      12168.4      124.824
      12181.0      124.279
      12193.5      123.755
      12206.1      123.265
      12218.6      122.838
      12231.2      122.417
      12243.7      121.994
      12256.2      121.569
      12268.8      121.143
      12281.3      120.717
      12293.9      120.293
      12306.4      119.866
      12319.0      119.445
      12331.5      119.016
      12344.1      118.594
      12356.6      118.166
      12369.2      117.747
      12381.7      117.317
      12394.3      116.892
      12406.8      116.538
      12419.4      116.225
      12431.9      115.917
      12444.5      115.614
      12457.0      115.307
      12469.6      115.001
      12482.1      114.696
      12494.6      114.386
      12507.2      114.080
      12519.7      113.777
      12532.3      113.472
      12544.8      113.159
      12557.4      112.854
      12569.9      112.551
      12582.5      112.243
      12595.0      111.945
      12607.6      111.639
      12620.1      111.373
      12632.7      111.080
      12645.2      110.802
      12657.8      110.530
      12670.3      110.242
      12682.9      109.956
      12695.4      109.685
      12708.0      109.401
      12720.5      109.116
      12733.0      108.841
      12745.6      108.563
      12758.1      108.280
      12770.7      107.993
      12783.2      107.719
      12795.8      107.436
      12808.3      107.169
      12820.9      106.894
      12833.4      106.636
      12846.0      106.367
      12858.5      106.102
      12871.1      105.835
      12883.6      105.574
      12896.2      105.304
      12908.7      105.031
      12921.3      104.775
      12933.8      104.503
      12946.3      104.246
      12958.9      103.971
      12971.4      103.711
      12984.0      103.440
      12996.5      103.180
      13009.1      102.918
      13021.6      102.669
      13034.2      102.418
      13046.7      102.167
      13059.3      101.908
      13071.8      101.660
      13084.4      101.405
      13096.9      101.156
      13109.5      100.903
      13122.0      100.650
      13134.6      100.395
      13147.1      100.150
      13159.7      99.8896
      13172.2      99.6422
      13184.7      99.3898
      13197.3      99.1391
      13209.8      98.8890
      13222.4      98.6533
      13234.9      98.4171
      13247.5      98.1807
      13260.0      97.9338
      13272.6      97.6951
      13285.1      97.4560
      13297.7      97.2181
      13310.2      96.9777
      13322.8      96.7384
      13335.3      96.4988
      13347.9      96.2584
      13360.4      96.0185
      13373.0      95.7821
      13385.5      95.5378
      13398.0      95.3044
      13410.6      95.0747
      13423.1      94.8415
      13435.7      94.6167
      13448.2      94.3895
      13460.8      94.1656
      13473.3      93.9326
      13485.9      93.7084
      13498.4      93.4770
      13511.0      93.2534
      13523.5      93.0260
      13536.1      92.8023
      13548.6      92.5706
      13561.2      92.3466
      13573.7      92.1148
      13586.3      91.8934
      13598.8      91.6612
      13611.4      91.4434
      13623.9      91.2302
      13636.4      91.0115
      13649.0      90.7970
      13661.5      90.5799
      13674.1      90.3676
      13686.6      90.1446
      13699.2      89.9319
      13711.7      89.7169
      13724.3      89.4949
      13736.8      89.2834
      13749.4      89.0707
      13761.9      88.8511
      13774.5      88.6326
      13787.0      88.4245
      13799.6      88.2008
      13812.1      87.9971
      13824.7      87.7918
      13837.2      87.5807
      13849.7      87.3851
      13862.3      87.1689
      13874.8      86.9695
      13887.4      86.7627
      13899.9      86.5546
      13912.5      86.3487
      13925.0      86.1508
      13937.6      85.9390
      13950.1      85.7332
      13962.7      85.5262
      13975.2      85.3245
      13987.8      85.1138
      14000.3      84.9125
      14012.9      84.7187
      14025.4      84.5190
      14038.0      84.3226
      14050.5      84.1287
      14063.1      83.9306
      14075.6      83.7424
      14088.1      83.5416
      14100.7      83.3470
      14113.2      83.1489
      14125.8      82.9564
      14138.3      82.7642
      14150.9      82.5631
      14163.4      82.3755
      14176.0      82.1700
      14188.5      81.9807
      14201.1      81.7854
      14213.6      81.5950
      14226.2      81.4168
      14238.7      81.2264
      14251.3      81.0347
      14263.8      80.8537
      14276.4      80.6712
      14288.9      80.4802
      14301.5      80.2906
      14314.0      80.1114
      14326.5      79.9224
      14339.1      79.7342
      14351.6      79.5512
      14364.2      79.3643
      14376.7      79.1750
      14389.3      78.9947
      14401.8      78.8047
      14414.4      78.6295
      14426.9      78.4489
      14439.5      78.2755
      14452.0      78.0988
      14464.6      77.9167
      14477.1      77.7429
      14489.7      77.5677
      14502.2      77.3862
      14514.8      77.2104
      14527.3      77.0371
      14539.8      76.8540
      14552.4      76.6807
      14564.9      76.4992
      14577.5      76.3223
      14590.0      76.1485
      14602.6      75.9715
      14615.1      75.8046
      14627.7      75.6321
      14640.2      75.4629
      14652.8      75.2969
      14665.3      75.1241
      14677.9      74.9568
      14690.4      74.7847
      14703.0      74.6186
      14715.5      74.4525
      14728.1      74.2812
      14740.6      74.1129
      14753.2      73.9402
      14765.7      73.7761
      14778.2      73.6030
      14790.8      73.4337
      14803.3      73.2715
      14815.9      73.1048
      14828.4      72.9461
      14841.0      72.7873
      14853.5      72.6211
      14866.1      72.4628
      14878.6      72.2990
      14891.2      72.1435
      14903.7      71.9797
      14916.3      71.8175
      14928.8      71.6570
      14941.4      71.4943
      14953.9      71.3379
      14966.5      71.1768
      14979.0      71.0102
      14991.6      70.8539
      15004.1      70.6914
      15016.6      70.5394
      15029.2      70.3856
      15041.7      70.2346
      15054.3      70.0753
      15066.8      69.9216
      15079.4      69.7744
      15091.9      69.6174
      15104.5      69.4609
      15117.0      69.3093
      15129.6      69.1547
      15142.1      69.0037
      15154.7      68.8441
      15167.2      68.6958
      15179.8      68.5403
      15192.3      68.3874
      15204.9      68.2366
      15217.4      68.0864
      15229.9      67.9420
      15242.5      67.7971
      15255.0      67.6483
      15267.6      67.5018
      15280.1      67.3517
      15292.7      67.2121
      15305.2      67.0570
      15317.8      66.9186
      15330.3      66.7652
      15342.9      66.6228
      15355.4      66.4739
      15368.0      66.3235
      15380.5      66.1839
      15393.1      66.0317
      15405.6      65.8921
      15418.2      65.7465
      15430.7      65.6086
      15443.3      65.4671
      15455.8      65.3272
      15468.3      65.1879
      15480.9      65.0454
      15493.4      64.9104
      15506.0      64.7672
      15518.5      64.6218
      15531.1      64.4870
      15543.6      64.3458
      15556.2      64.2030
      15568.7      64.0642
      15581.3      63.9222
      15593.8      63.7829
      15606.4      63.6467
      15618.9      63.5109
      15631.5      63.3789
      15644.0      63.2439
      15656.6      63.1100
      15669.1      62.9773
      15681.7      62.8411
      15694.2      62.7085
      15706.7      62.5724
      15719.3      62.4410
      15731.8      62.3068
      15744.4      62.1714
      15756.9      62.0394
      15769.5      61.9014
      15782.0      61.7722
      15794.6      61.6384
      15807.1      61.5051
      15819.7      61.3766
      15832.2      61.2517
      15844.8      61.1194
      15857.3      60.9954
      15869.9      60.8646
      15882.4      60.7380
      15895.0      60.6077
      15907.5      60.4833
      15920.0      60.3535
      15932.6      60.2277
      15945.1      60.0949
      15957.7      59.9697
      15970.2      59.8437
      15982.8      59.7137
      15995.3      59.5872
      16007.9      59.4614
      16020.4      59.3351
      16033.0      59.2180
      16045.5      59.0924
      16058.1      58.9730
      16070.6      58.8482
      16083.2      58.7257
      16095.7      58.6017
      16108.3      58.4823
      16120.8      58.3566
      16133.3      58.2376
      16145.9      58.1147
      16158.4      57.9912
      16171.0      57.8667
      16183.5      57.7466
      16196.1      57.6198
      16208.6      57.5050
      16221.2      57.3874
      16233.7      57.2691
      16246.3      57.1531
      16258.8      57.0356
      16271.4      56.9162
      16283.9      56.7999
      16296.5      56.6826
      16309.0      56.5679
      16321.6      56.4474
      16334.1      56.3310
      16346.7      56.2142
      16359.2      56.0968
      16371.7      55.9777
      16384.3      55.8596
      16396.8      55.7488
      16409.4      55.6333
      16421.9      55.5153
      16434.5      55.4032
      16447.0      55.2968
      16459.6      55.1817
      16472.1      55.0734
      16484.7      54.9570
      16497.2      54.8410
      16509.8      54.7367
      16522.3      54.6150
      16534.9      54.5107
      16547.4      54.3959
      16560.0      54.2854
      16572.5      54.1654
      16585.1      54.0671
      16597.6      53.9422
      16610.1      53.8419
      16622.7      53.7311
      16635.2      53.6197
      16647.8      53.5157
      16660.3      53.4064
      16672.9      53.3043
      16685.4      53.1901
      16698.0      53.0876
      16710.5      52.9795
      16723.1      52.8711
      16735.6      52.7633
      16748.2      52.6509
      16760.7      52.5501
      16773.3      52.4427
      16785.8      52.3294
      16798.4      52.2229
      16810.9      52.1246
      16823.4      52.0200
      16836.0      51.9176
      16848.5      51.8125
      16861.1      51.7054
      16873.6      51.6119
      16886.2      51.5015
      16898.7      51.4003
      16911.3      51.2943
      16923.8      51.1979
      16936.4      51.0892
      16948.9      50.9875
      16961.5      50.8915
      16974.0      50.7772
      16986.6      50.6795
      16999.1      50.5736
      17011.7      50.4780
      17024.2      50.3821
      17036.8      50.2780
      17049.3      50.1785
      17061.8      50.0863
      17074.4      49.9800
      17086.9      49.8878
      17099.5      49.7902
      17112.0      49.6877
      17124.6      49.5860
      17137.1      49.4898
      17149.7      49.3930
      17162.2      49.2953
      17174.8      49.1936
      17187.3      49.0961
      17199.9      48.9983
      17212.4      48.9000
      17225.0      48.8083
      17237.5      48.7092
      17250.1      48.6176
      17262.6      48.5275
      17275.1      48.4247
      17287.7      48.3362
      17300.2      48.2330
      17312.8      48.1450
      17325.3      48.0499
      17337.9      47.9575
      17350.4      47.8519
      17363.0      47.7648
      17375.5      47.6695
      17388.1      47.5780
      17400.6      47.4774
      17413.2      47.3897
      17425.7      47.2997
      17438.3      47.2034
      17450.8      47.1185
      17463.4      47.0256
      17475.9      46.9334
      17488.5      46.8448
      17501.0      46.7472
      17513.5      46.6636
      17526.1      46.5701
      17538.6      46.4791
      17551.2      46.3865
      17563.7      46.2979
      17576.3      46.2102
      17588.8      46.1151
      17601.4      46.0224
      17613.9      45.9375
      17626.5      45.8502
      17639.0      45.7654
      17651.6      45.6727
      17664.1      45.5882
      17676.7      45.4997
      17689.2      45.4180
      17701.8      45.3233
      17714.3      45.2410
      17726.9      45.1544
      17739.4      45.0623
      17751.9      44.9777
      17764.5      44.8911
      17777.0      44.8050
      17789.6      44.7126
      17802.1      44.6284
      17814.7      44.5447
      17827.2      44.4603
      17839.8      44.3797
      17852.3      44.2959
      17864.9      44.2099
      17877.4      44.1200
      17890.0      44.0448
      17902.5      43.9554
      17915.1      43.8762
      17927.6      43.7871
      17940.2      43.7046
      17952.7      43.6220
      17965.2      43.5349
      17977.8      43.4567
      17990.3      43.3698
      18002.9      43.2873
      18015.4      43.2082
      18028.0      43.1203
      18040.5      43.0475
      18053.1      42.9635
      18065.6      42.8875
      18078.2      42.8017
      18090.7      42.7242
      18103.3      42.6415
      18115.8      42.5623
      18128.4      42.4815
      18140.9      42.4028
      18153.5      42.3216
      18166.0      42.2410
      18178.6      42.1598
      18191.1      42.0743
      18203.6      42.0018
      18216.2      41.9266
      18228.7      41.8439
      18241.3      41.7711
      18253.8      41.6866
      18266.4      41.6135
      18278.9      41.5396
      18291.5      41.4580
      18304.0      41.3854
      18316.6      41.3025
      18329.1      41.2295
      18341.7      41.1522
      18354.2      41.0726
      18366.8      40.9989
      18379.3      40.9169
      18391.9      40.8415
      18404.4      40.7672
      18416.9      40.6891
      18429.5      40.6191
      18442.0      40.5422
      18454.6      40.4677
      18467.1      40.3902
      18479.7      40.3231
      18492.2      40.2436
      18504.8      40.1670
      18517.3      40.0981
      18529.9      40.0209
      18542.4      39.9426
      18555.0      39.8718
      18567.5      39.7941
      18580.1      39.7255
      18592.6      39.6456
      18605.2      39.5714
      18617.7      39.5048
      18630.3      39.4351
      18642.8      39.3548
      18655.3      39.2884
      18667.9      39.2195
      18680.4      39.1458
      18693.0      39.0745
      18705.5      39.0031
      18718.1      38.9317
      18730.6      38.8625
      18743.2      38.7866
      18755.7      38.7166
      18768.3      38.6465
      18780.8      38.5777
      18793.4      38.4997
      18805.9      38.4357
      18818.5      38.3628
      18831.0      38.2952
      18843.6      38.2279
      18856.1      38.1545
      18868.7      38.0898
      18881.2      38.0159
      18893.7      37.9527
      18906.3      37.8762
      18918.8      37.8116
      18931.4      37.7440
      18943.9      37.6731
      18956.5      37.6059
      18969.0      37.5341
      18981.6      37.4643
      18994.1      37.3942
      19006.7      37.3307
      19019.2      37.2656
      19031.8      37.1927
      19044.3      37.1345
      19056.9      37.0627
      19069.4      36.9980
      19082.0      36.9317
      19094.5      36.8655
      19107.0      36.8015
      19119.6      36.7336
      19132.1      36.6640
      19144.7      36.6006
      19157.2      36.5369
      19169.8      36.4626
      19182.3      36.4018
      19194.9      36.3367
      19207.4      36.2704
      19220.0      36.2073
      19232.5      36.1457
      19245.1      36.0800
      19257.6      36.0164
      19270.2      35.9542
      19282.7      35.8858
      19295.3      35.8294
      19307.8      35.7584
      19320.4      35.7015
      19332.9      35.6328
      19345.4      35.5697
      19358.0      35.5079
      19370.5      35.4438
      19383.1      35.3812
      19395.6      35.3134
      19408.2      35.2562
      19420.7      35.1953
      19433.3      35.1293
      19445.8      35.0675
      19458.4      35.0102
      19470.9      34.9471
      19483.5      34.8850
      19496.0      34.8252
      19508.6      34.7645
      19521.1      34.7004
      19533.7      34.6380
      19546.2      34.5778
      19558.7      34.5174
      19571.3      34.4556
      19583.8      34.3943
      19596.4      34.3315
      19608.9      34.2727
      19621.5      34.2157
      19634.0      34.1516
      19646.6      34.0947
      19659.1      34.0345
      19671.7      33.9778
      19684.2      33.9162
      19696.8      33.8597
      19709.3      33.7982
      19721.9      33.7398
      19734.4      33.6822
      19747.0      33.6173
      19759.5      33.5628
      19772.1      33.5017
      19784.6      33.4459
      19797.1      33.3856
      19809.7      33.3253
      19822.2      33.2702
      19834.8      33.2149
      19847.3      33.1555
      19859.9      33.0966
      19872.4      33.0406
      19885.0      32.9835
      19897.5      32.9255
      19910.1      32.8736
      19922.6      32.8117
      19935.2      32.7538
      19947.7      32.6983
      19960.3      32.6417
      19972.8      32.5823
      19985.4      32.5264
      19997.9      32.4715
      20010.5      32.4130
      20023.0      32.3583
      20035.5      32.3079
      20048.1      32.2479
      20060.6      32.1955
      20073.2      32.1391
      20085.7      32.0846
      20098.3      32.0295
      20110.8      31.9730
      20123.4      31.9195
      20135.9      31.8665
      20148.5      31.8093
      20161.0      31.7543
      20173.6      31.7023
      20186.1      31.6430
      20198.7      31.5888
      20211.2      31.5402
      20223.8      31.4824
      20236.3      31.4294
      20248.8      31.3791
      20261.4      31.3219
      20273.9      31.2714
      20286.5      31.2176
      20299.0      31.1683
      20311.6      31.1103
      20324.1      31.0568
      20336.7      31.0076
      20349.2      30.9535
      20361.8      30.8979
      20374.3      30.8464
      20386.9      30.7941
      20399.4      30.7416
      20412.0      30.6907
      20424.5      30.6367
      20437.1      30.5878
      20449.6      30.5363
      20462.1      30.4863
      20474.7      30.4321
      20487.2      30.3822
      20499.8      30.3314
      20512.3      30.2802
      20524.9      30.2272
      20537.4      30.1757
      20550.0      30.1270
      20562.5      30.0766
      20575.1      30.0228
      20587.6      29.9716
      20600.2      29.9251
      20612.7      29.8688
      20625.3      29.8223
      20637.8      29.7739
      20650.4      29.7258
      20662.9      29.6761
      20675.5      29.6237
      20688.0      29.5749
      20700.5      29.5289
      20713.1      29.4778
      20725.6      29.4274
      20738.2      29.3763
      20750.7      29.3268
      20763.3      29.2794
      20775.8      29.2323
      20788.4      29.1825
      20800.9      29.1297
      20813.5      29.0840
      20826.0      29.0369
      20838.6      28.9871
      20851.1      28.9428
      20863.7      28.8918
      20876.2      28.8465
      20888.8      28.7993
      20901.3      28.7518
      20913.9      28.7007
      20926.4      28.6577
      20938.9      28.6049
      20951.5      28.5601
      20964.0      28.5147
      20976.6      28.4666
      20989.1      28.4181
      21001.7      28.3686
      21014.2      28.3224
      21026.8      28.2792
      21039.3      28.2291
      21051.9      28.1873
      21064.4      28.1401
      21077.0      28.0918
      21089.5      28.0470
      21102.1      28.0031
      21114.6      27.9557
      21127.2      27.9074
      21139.7      27.8627
      21152.3      27.8189
      21164.8      27.7713
      21177.3      27.7251
      21189.9      27.6798
      21202.4      27.6304
      21215.0      27.5891
      21227.5      27.5449
      21240.1      27.5015
      21252.6      27.4529
      21265.2      27.4100
      21277.7      27.3655
      21290.3      27.3203
      21302.8      27.2792
      21315.4      27.2304
      21327.9      27.1877
      21340.5      27.1448
      21353.0      27.0962
      21365.6      27.0526
      21378.1      27.0087
      21390.6      26.9672
      21403.2      26.9197
      21415.7      26.8764
      21428.3      26.8359
      21440.8      26.7935
      21453.4      26.7487
      21465.9      26.7049
      21478.5      26.6615
      21491.0      26.6189
      21503.6      26.5797
      21516.1      26.5317
      21528.7      26.4914
      21541.2      26.4493
      21553.8      26.4065
      21566.3      26.3622
      21578.9      26.3177
      21591.4      26.2759
      21604.0      26.2353
      21616.5      26.1910
      21629.0      26.1521
      21641.6      26.1081
      21654.1      26.0678
      21666.7      26.0282
      21679.2      25.9849
      21691.8      25.9412
      21704.3      25.9023
      21716.9      25.8600
      21729.4      25.8179
      21742.0      25.7781
      21754.5      25.7350
      21767.1      25.6954
      21779.6      25.6521
      21792.2      25.6101
      21804.7      25.5711
      21817.3      25.5315
      21829.8      25.4900
      21842.4      25.4498
      21854.9      25.4083
      21867.4      25.3722
      21880.0      25.3283
      21892.5      25.2890
      21905.1      25.2488
      21917.6      25.2072
      21930.2      25.1703
      21942.7      25.1281
      21955.3      25.0886
      21967.8      25.0468
      21980.4      25.0094
      21992.9      24.9680
      22005.5      24.9282
      22018.0      24.8902
      22030.6      24.8496
      22043.1      24.8110
      22055.7      24.7730
      22068.2      24.7344
      22080.7      24.6964
      22093.3      24.6569
      22105.8      24.6194
      22118.4      24.5777
      22130.9      24.5419
      22143.5      24.4992
      22156.0      24.4638
      22168.6      24.4218
      22181.1      24.3873
      22193.7      24.3440
      22206.2      24.3082
      22218.8      24.2714
      22231.3      24.2314
      22243.9      24.1975
      22256.4      24.1578
      22269.0      24.1201
      22281.5      24.0809
      22294.1      24.0443
      22306.6      24.0072
      22319.1      23.9686
      22331.7      23.9344
      22344.2      23.8952
      22356.8      23.8564
      22369.3      23.8196
      22381.9      23.7807
      22394.4      23.7459
      22407.0      23.7064
      22419.5      23.6711
      22432.1      23.6363
      22444.6      23.5974
      22457.2      23.5652
      22469.7      23.5258
      22482.3      23.4879
      22494.8      23.4544
      22507.4      23.4158
      22519.9      23.3804
      22532.5      23.3455
      22545.0      23.3065
      22557.5      23.2714
      22570.1      23.2335
      22582.6      23.2009
      22595.2      23.1609
      22607.7      23.1272
      22620.3      23.0923
      22632.8      23.0585
      22645.4      23.0202
      22657.9      22.9840
      22670.5      22.9519
      22683.0      22.9170
      22695.6      22.8818
      22708.1      22.8445
      22720.7      22.8117
      22733.2      22.7730
      22745.8      22.7397
      22758.3      22.7068
      22770.8      22.6690
      22783.4      22.6352
      22795.9      22.5996
      22808.5      22.5666
      22821.0      22.5313
      22833.6      22.4956
      22846.1      22.4613
      22858.7      22.4291
      22871.2      22.3956
      22883.8      22.3603
      22896.3      22.3256
      22908.9      22.2930
      22921.4      22.2609
      22934.0      22.2238
      22946.5      22.1908
      22959.1      22.1551
      22971.6      22.1228
      22984.2      22.0883
      22996.7      22.0557
      23009.2      22.0212
      23021.8      21.9868
      23034.3      21.9545
      23046.9      21.9220
      23059.4      21.8878
      23072.0      21.8573
      23084.5      21.8233
      23097.1      21.7900
      23109.6      21.7565
      23122.2      21.7265
      23134.7      21.6899
      23147.3      21.6579
      23159.8      21.6273
      23172.4      21.5903
      23184.9      21.5606
      23197.5      21.5279
      23210.0      21.4932
      23222.5      21.4613
      23235.1      21.4321
      23247.6      21.4000
      23260.2      21.3654
      23272.7      21.3346
      23285.3      21.3029
      23297.8      21.2710
      23310.4      21.2383
      23322.9      21.2075
      23335.5      21.1767
      23348.0      21.1412
      23360.6      21.1107
      23373.1      21.0814
      23385.7      21.0466
      23398.2      21.0161
      23410.8      20.9855
      23423.3      20.9526
      23435.8      20.9240
      23448.4      20.8910
      23460.9      20.8599
      23473.5      20.8312
      23486.0      20.7971
      23498.6      20.7678
      23511.1      20.7368
      23523.7      20.7059
      23536.2      20.6769
      23548.8      20.6424
      23561.3      20.6122
      23573.9      20.5823
      23586.4      20.5513
      23599.0      20.5217
      23611.5      20.4897
      23624.1      20.4616
      23636.6      20.4305
      23649.2      20.4001
      23661.7      20.3693
      23674.2      20.3419
      23686.8      20.3109
      23699.3      20.2816
      23711.9      20.2501
      23724.4      20.2205
      23737.0      20.1898
      23749.5      20.1618
      23762.1      20.1314
      23774.6      20.0990
      23787.2      20.0733
      23799.7      20.0395
      23812.3      20.0129
      23824.8      19.9832
      23837.4      19.9546
      23849.9      19.9239
      23862.5      19.8956
      23875.0      19.8661
      23887.6      19.8397
      23900.1      19.8080
      23912.6      19.7801
      23925.2      19.7496
      23937.7      19.7207
      23950.3      19.6949
      23962.8      19.6623
      23975.4      19.6327
      23987.9      19.6052
      24000.5      19.5777
      24013.0      19.5497
      24025.6      19.5189
      24038.1      19.4929
      24050.7      19.4625
      24063.2      19.4347
      24075.8      19.4092
      24088.3      19.3772
      24100.9      19.3519
      24113.4      19.3228
      24126.0      19.2944
      24138.5      19.2657
      24151.0      19.2392
      24163.6      19.2101
      24176.1      19.1819
      24188.7      19.1538
      24201.2      19.1260
      24213.8      19.0992
      24226.3      19.0691
      24238.9      19.0442
      24251.4      19.0157
      24264.0      18.9901
      24276.5      18.9629
      24289.1      18.9339
      24301.6      18.9049
      24314.2      18.8819
      24326.7      18.8505
      24339.3      18.8263
      24351.8      18.7993
      24364.4      18.7690
      24376.9      18.7418
      24389.4      18.7168
      24402.0      18.6892
      24414.5      18.6617
      24427.1      18.6347
      24439.6      18.6093
      24452.2      18.5844
      24464.7      18.5564
      24477.3      18.5291
      24489.8      18.5029
      24502.4      18.4763
      24514.9      18.4520
      24527.5      18.4231
      24540.0      18.3972
      24552.6      18.3709
      24565.1      18.3438
      24577.7      18.3173
      24590.2      18.2932
      24602.7      18.2629
      24615.3      18.2396
      24627.8      18.2125
      24640.4      18.1888
      24652.9      18.1613
      24665.5      18.1368
      24678.0      18.1106
      24690.6      18.0857
      24703.1      18.0590
      24715.7      18.0334
      24728.2      18.0085
      24740.8      17.9822
      24753.3      17.9564
      24765.9      17.9307
      24778.4      17.9050
      24791.0      17.8793
      24803.5      17.8539
      24816.0      17.8288
      24828.6      17.8031
      24841.1      17.7801
      24853.7      17.7532
      24866.2      17.7302
      24878.8      17.7051
      24891.3      17.6793
      24903.9      17.6540
      24916.4      17.6298
      24929.0      17.6032
      24941.5      17.5813
      24954.1      17.5530
      24966.6      17.5311
      24979.2      17.5058
      24991.7      17.4800
      25004.3      17.4548
      25016.8      17.4289
      25029.4      17.4086
      25041.9      17.3832
      25054.4      17.3561
      25067.0      17.3355
      25079.5      17.3093
      25092.1      17.2869
      25104.6      17.2605
      25117.2      17.2382
      25129.7      17.2117
      25142.3      17.1903
      25154.8      17.1633
      25167.4      17.1402
      25179.9      17.1159
      25192.5      17.0927
      25205.0      17.0685
      25217.6      17.0439
      25230.1      17.0217
      25242.7      16.9984
      25255.2      16.9739
      25267.8      16.9491
      25280.3      16.9279
      25292.8      16.9037
      25305.4      16.8793
      25317.9      16.8561
      25330.5      16.8343
      25343.0      16.8107
      25355.6      16.7852
      25368.1      16.7612
      25380.7      16.7404
      25393.2      16.7161
      25405.8      16.6910
      25418.3      16.6713
      25430.9      16.6464
      25443.4      16.6243
      25456.0      16.6014
      25468.5      16.5766
      25481.1      16.5556
      25493.6      16.5330
      25506.1      16.5103
      25518.7      16.4882
      25531.2      16.4627
      25543.8      16.4416
      25556.3      16.4198
      25568.9      16.3945
      25581.4      16.3734
      25594.0      16.3564
