# spectrum  Type     U-V    B-V    V-R    V-I    V-J    V-K
# ---------------------------------------------------------
# bpgs_33  F6V      0.42   0.37   0.28   0.55   0.81   1.04
#
# lambda (Angstroms)  flux (phot/lambda)
#----------------------------------------------------------
PHOTLAM
      895.930  4.85366e-10
      908.286  1.49615e-09
      920.641  2.80411e-09
      932.996  5.56987e-09
      945.352  8.90150e-09
      957.707  1.27520e-08
      970.062  1.88353e-08
      982.417  2.62366e-08
      994.773  3.69483e-08
      1007.13  4.97545e-08
      1019.48  6.73321e-08
      1031.84  8.81809e-08
      1044.19  1.19503e-07
      1056.55  1.58538e-07
      1068.90  2.11048e-07
      1081.26  2.79443e-07
      1093.61  4.17623e-06
      1105.97  1.14093e-05
      1118.32  1.72664e-05
      1130.68  2.18417e-05
      1143.04  2.76706e-05
      1155.39  3.65920e-05
      1167.75  4.62453e-05
      1180.10  5.66657e-05
      1192.46  6.94133e-05
      1204.81  8.68164e-05
      1217.17  0.000112827
      1229.52  0.000179527
      1241.88  0.000269066
      1254.23  0.000383724
      1266.59  0.000491953
      1278.94  0.000595469
      1291.30  0.000722987
      1303.65  0.000863914
      1316.01   0.00102175
      1328.36   0.00119916
      1340.72   0.00139488
      1353.07   0.00163021
      1365.43   0.00190426
      1377.79   0.00222629
      1390.14   0.00262668
      1402.50   0.00307038
      1414.85   0.00356694
      1427.21   0.00413721
      1439.56   0.00478192
      1451.92   0.00558585
      1464.27   0.00645451
      1476.63   0.00739307
      1488.98   0.00857962
      1501.34    0.0118190
      1513.69    0.0228021
      1526.05    0.0337334
      1538.40    0.0430887
      1550.76    0.0451912
      1563.11    0.0479804
      1575.47    0.0571927
      1587.82    0.0670677
      1600.18    0.0769837
      1612.53    0.0858603
      1624.89    0.0937590
      1637.25     0.100332
      1649.60     0.104669
      1661.96     0.467288
      1674.31      2.02831
      1686.67      3.26457
      1699.02      4.11265
      1711.38      4.74311
      1723.73      5.47665
      1736.09      6.50158
      1748.44      6.76474
      1760.80      6.86727
      1773.15      8.06952
      1785.51      8.46792
      1797.86      7.67245
      1810.22      6.43975
      1822.57      5.57374
      1834.93      6.12729
      1847.28      7.43566
      1859.64      9.10736
      1872.00      10.0109
      1884.35      10.7952
      1896.71      11.6298
      1909.06      12.6532
      1921.42      13.2731
      1933.77      12.0061
      1946.13      11.5042
      1958.48      12.1328
      1970.84      14.4005
      1983.19      16.2958
      1995.55      16.2675
      2007.90      15.4274
      2020.26      14.4339
      2032.61      15.0580
      2044.97      15.2454
      2057.32      15.1938
      2069.68      28.5029
      2082.03      42.3726
      2094.39      41.6344
      2106.74      42.5807
      2119.10      45.4339
      2131.46      44.1981
      2143.81      43.8008
      2156.17      46.8534
      2168.52      46.7162
      2180.88      46.1580
      2193.23      51.3801
      2205.59      54.9651
      2217.94      55.8534
      2230.30      58.9320
      2242.65      60.1501
      2255.01      54.3170
      2267.36      52.2448
      2279.72      52.9643
      2292.07      52.6668
      2304.43      52.3075
      2316.78      52.0726
      2329.14      49.6543
      2341.49      46.0485
      2353.85      41.5090
      2366.20      40.8283
      2378.56      43.8451
      2390.92      44.1586
      2403.27      43.4069
      2415.63      41.9842
      2427.98      50.2862
      2440.34      62.1849
      2452.69      62.1815
      2465.05      59.7535
      2477.40      57.0279
      2489.76      64.2750
      2502.11      71.6283
      2514.47      67.6376
      2526.82      62.7398
      2539.18      58.9060
      2551.53      63.8690
      2563.89      72.2711
      2576.24      83.3703
      2588.60      85.2649
      2600.95      81.2917
      2613.31      71.7513
      2625.67      84.3843
      2638.02      122.472
      2650.38      140.991
      2662.73      150.016
      2675.09      149.404
      2687.44      147.546
      2699.80      144.868
      2712.15      140.061
      2724.51      131.117
      2736.86      116.751
      2749.22      119.018
      2761.57      126.143
      2773.93      125.113
      2786.28      117.164
      2798.64      106.559
      2810.99      128.157
      2823.35      154.769
      2835.70      173.635
      2848.06      179.838
      2860.42      181.820
      2872.77      199.171
      2885.13      217.270
      2897.48      232.858
      2909.84      242.500
      2922.19      247.880
      2934.55      246.430
      2946.90      252.182
      2959.26      263.246
      2971.61      267.155
      2983.97      268.350
      2996.32      267.604
      3008.68      278.922
      3021.03      294.727
      3033.39      304.281
      3045.74      307.493
      3058.10      305.319
      3070.45      315.600
      3082.81      325.339
      3095.16      323.909
      3107.52      332.048
      3119.88      345.172
      3132.23      346.439
      3144.59      343.352
      3156.94      337.718
      3169.30      355.048
      3181.65      377.192
      3194.01      382.153
      3206.36      376.317
      3218.72      362.924
      3231.07      360.915
      3243.43      373.301
      3255.78      410.584
      3268.14      417.683
      3280.49      435.048
      3292.85      457.235
      3305.20      453.680
      3317.56      444.605
      3329.91      441.004
      3342.27      446.001
      3354.62      443.712
      3366.98      438.732
      3379.34      453.849
      3391.69      459.323
      3404.05      453.799
      3416.40      457.926
      3428.76      452.102
      3441.11      443.737
      3453.47      456.224
      3465.82      456.682
      3478.18      451.010
      3490.53      465.094
      3502.89      482.299
      3515.24      477.297
      3527.60      490.794
      3539.95      520.425
      3552.31      515.544
      3564.66      476.811
      3577.02      464.172
      3589.38      494.931
      3601.73      493.270
      3614.09      488.170
      3626.44      495.873
      3638.80      503.918
      3651.15      532.038
      3663.51      539.326
      3675.86      537.916
      3688.22      541.091
      3700.57      537.874
      3712.93      535.457
      3725.28      525.042
      3737.64      527.118
      3749.99      571.981
      3762.35      611.500
      3774.70      640.016
      3787.06      633.251
      3799.41      660.569
      3811.77      657.811
      3824.12      564.932
      3836.48      598.004
      3848.83      715.984
      3861.19      744.216
      3873.55      681.292
      3885.90      661.031
      3898.26      726.620
      3910.61      704.185
      3922.97      581.518
      3935.32      624.650
      3947.68      679.225
      3960.03      592.369
      3972.39      706.087
      3984.74      895.392
      3997.10      959.278
      4009.45      984.988
      4021.81      984.012
      4034.16      978.131
      4046.52      976.099
      4058.87      983.489
      4071.23      992.718
      4083.58      916.135
      4095.94      857.214
      4108.29      913.576
      4120.65      963.278
      4133.01      1003.20
      4145.36      1015.25
      4157.72      1003.79
      4170.07      992.304
      4182.43      1000.40
      4194.78      1020.81
      4207.14      1020.59
      4219.49      1003.31
      4231.85      1013.51
      4244.20      1037.65
      4256.56      1047.09
      4268.91      1032.92
      4281.27      987.905
      4293.62      951.086
      4305.98      987.798
      4318.33      961.580
      4330.69      881.361
      4343.04      914.118
      4355.40      1002.63
      4367.75      1014.33
      4380.11      997.057
      4392.47      1015.33
      4404.82      1035.26
      4417.18      1048.00
      4429.53      1046.72
      4441.89      1035.21
      4454.24      1026.33
      4466.60      1044.03
      4478.95      1059.87
      4491.31      1080.24
      4503.66      1096.45
      4516.02      1069.80
      4528.37      1051.66
      4540.73      1067.58
      4553.08      1090.73
      4565.44      1085.10
      4577.79      1073.91
      4590.15      1078.32
      4602.51      1094.92
      4614.86      1107.36
      4627.21      1103.83
      4639.57      1086.30
      4651.93      1074.22
      4664.28      1063.54
      4676.64      1072.19
      4688.99      1075.57
      4701.35      1081.79
      4713.70      1108.50
      4726.06      1111.99
      4738.41      1108.77
      4750.77      1097.25
      4763.12      1102.31
      4775.48      1123.25
      4787.83      1120.72
      4800.19      1130.63
      4812.54      1145.46
      4824.90      1124.76
      4837.25      1047.82
      4849.61      920.497
      4861.97      920.693
      4874.32      1004.87
      4886.68      1047.85
      4899.03      1063.83
      4911.39      1056.37
      4923.74      1057.89
      4936.10      1069.89
      4948.45      1069.25
      4960.81      1065.89
      4973.16      1065.37
      4985.52      1055.97
      4997.87      1039.87
      5010.23      1031.56
      5022.58      1045.91
      5034.94      1059.36
      5047.29      1066.47
      5059.65      1048.57
      5072.00      1029.18
      5084.36      1023.24
      5096.71      1025.60
      5109.07      1025.81
      5121.43      996.360
      5133.78      992.427
      5146.14      1004.63
      5158.49      982.383
      5170.85      972.184
      5183.20      981.485
      5195.56      1003.06
      5207.91      1009.27
      5220.27      998.441
      5232.62      1002.73
      5244.98      1003.76
      5257.33      974.501
      5269.69      976.314
      5282.04      1010.05
      5294.40      1030.03
      5306.75      1025.85
      5319.11      1004.53
      5331.46      1012.17
      5343.82      1030.14
      5356.18      1026.89
      5368.53      1020.33
      5380.89      1022.46
      5393.24      1003.15
      5405.60      993.350
      5417.95      1011.09
      5430.31      1021.25
      5442.66      1029.73
      5455.02      1020.67
      5467.37      999.862
      5479.73      1008.14
      5492.08      1012.28
      5504.44      1008.40
      5516.79      1019.17
      5529.15      1029.11
      5541.50      1034.06
      5553.86      1034.03
      5566.21      1037.40
      5578.57      1040.25
      5590.93      1017.98
      5603.28      1015.89
      5615.64      1030.49
      5627.99      1016.90
      5640.35      1020.01
      5652.70      1011.84
      5665.06      999.154
      5677.41      1014.13
      5689.77      1001.74
      5702.12      1016.69
      5714.48      1025.51
      5726.83      1025.31
      5739.19      1010.70
      5751.54      1005.10
      5763.90      999.992
      5776.25      996.061
      5788.61      994.584
      5800.96      995.345
      5813.32      1000.90
      5825.67      1004.26
      5838.03      1003.34
      5850.39      988.526
      5862.74      970.302
      5875.10      954.363
      5887.45      953.625
      5899.81      963.292
      5912.16      973.349
      5924.52      979.341
      5936.87      978.621
      5949.23      979.402
      5961.58      979.784
      5973.94      976.400
      5986.29      974.420
      5998.65      974.467
      6011.00      977.826
      6023.36      980.022
      6035.71      977.679
      6048.07      976.921
      6060.42      978.507
      6072.78      986.760
      6085.13      989.636
      6097.49      983.533
      6109.84      973.462
      6122.20      963.392
      6134.56      957.771
      6146.91      952.233
      6159.27      947.344
      6171.62      948.943
      6183.98      952.408
      6196.33      956.380
      6208.69      955.277
      6221.04      951.481
      6233.40      946.444
      6245.75      942.562
      6258.11      940.273
      6270.46      939.625
      6282.82      940.545
      6295.17      944.523
      6307.53      948.680
      6319.88      952.101
      6332.24      952.015
      6344.60      952.834
      6356.95      956.145
      6369.30      956.202
      6381.66      953.355
      6394.02      945.131
      6406.37      944.030
      6418.73      950.076
      6431.08      954.922
      6443.44      953.793
      6455.79      940.500
      6468.15      933.290
      6480.50      931.089
      6492.86      934.219
      6505.21      926.582
      6517.57      902.673
      6529.92      866.566
      6542.28      833.146
      6554.63      820.255
      6566.99      830.381
      6579.34      857.384
      6591.70      884.756
      6604.05      905.620
      6616.41      914.355
      6628.76      916.617
      6641.12      917.108
      6653.48      922.560
      6665.83      929.033
      6678.19      935.378
      6690.54      935.552
      6702.90      933.798
      6715.25      932.137
      6727.61      933.223
      6739.96      935.750
      6752.32      936.424
      6764.67      939.074
      6777.03      945.617
      6789.38      957.032
      6801.74      969.024
      6814.09      976.208
      6826.45      974.368
      6838.80      963.510
      6851.16      942.752
      6863.52      926.897
      6875.87      926.808
      6888.23      934.815
      6900.58      943.421
      6912.94      934.856
      6925.29      923.375
      6937.65      912.228
      6950.00      912.179
      6962.36      912.731
      6974.71      904.011
      6987.07      893.749
      6999.42      884.685
      7011.78      888.274
      7024.13      893.473
      7036.49      896.655
      7048.84      895.269
      7061.20      891.882
      7073.55      888.807
      7085.91      885.819
      7098.26      882.745
      7110.62      878.980
      7122.98      871.699
      7135.33      856.142
      7147.69      831.251
      7160.04      803.842
      7172.40      794.163
      7184.75      800.160
      7197.11      824.110
      7209.46      832.429
      7221.82      831.226
      7234.17      819.944
      7246.53      813.636
      7258.88      813.122
      7271.24      816.078
      7283.59      821.685
      7295.95      830.854
      7308.30      840.844
      7320.66      849.942
      7333.02      853.510
      7345.37      851.517
      7357.73      843.804
      7370.08      837.649
      7382.44      833.704
      7394.79      834.278
      7407.15      837.321
      7419.50      841.666
      7431.86      844.753
      7444.21      845.166
      7456.57      841.612
      7468.92      838.236
      7481.28      836.797
      7493.63      842.395
      7505.99      851.835
      7518.34      863.700
      7530.70      867.761
      7543.05      857.394
      7555.41      817.639
      7567.76      751.720
      7580.12      677.563
      7592.47      645.066
      7604.83      658.628
      7617.19      729.209
      7629.54      795.115
      7641.90      845.998
      7654.25      855.010
      7666.61      846.812
      7678.96      827.692
      7691.32      815.345
      7703.67      810.888
      7716.03      818.612
      7728.38      819.459
      7740.74      816.410
      7753.09      813.369
      7765.45      813.638
      7777.80      817.760
      7790.16      819.134
      7802.51      818.288
      7814.87      813.735
      7827.22      809.260
      7839.58      805.044
      7851.94      801.875
      7864.29      799.514
      7876.65      798.129
      7889.00      795.394
      7901.36      793.088
      7913.71      795.259
      7926.07      796.254
      7938.42      795.292
      7950.78      793.154
      7963.13      791.222
      7975.49      790.737
      7987.84      788.805
      8000.20      785.725
      8012.55      782.057
      8024.91      781.418
      8037.26      785.543
      8049.62      794.118
      8061.97      800.641
      8074.33      795.356
      8086.69      788.625
      8099.04      781.743
      8111.39      776.391
      8123.75      768.109
      8136.11      753.531
      8148.46      745.220
      8160.82      744.815
      8173.17      764.338
      8185.53      775.331
      8197.88      771.434
      8210.24      753.203
      8222.59      742.356
      8234.95      763.305
      8247.30      772.608
      8259.66      770.347
      8272.01      758.710
      8284.37      745.367
      8296.72      732.493
      8309.08      724.081
      8321.43      719.209
      8333.79      720.009
      8346.14      719.903
      8358.50      719.468
      8370.85      727.718
      8383.21      735.420
      8395.57      735.883
      8407.92      734.453
      8420.28      731.263
      8432.63      723.252
      8444.99      715.027
      8457.34      708.186
      8469.70      711.378
      8482.05      716.946
      8494.41      717.775
      8506.76      708.982
      8519.12      693.728
      8531.47      688.764
      8543.83      690.784
      8556.18      701.679
      8568.54      708.015
      8580.89      711.945
      8593.25      717.200
      8605.61      719.073
      8617.96      716.332
      8630.32      707.059
      8642.67      696.603
      8655.03      688.564
      8667.38      692.044
      8679.74      702.464
      8692.09      705.270
      8704.45      699.238
      8716.80      681.994
      8729.16      677.612
      8741.51      680.430
      8753.87      688.582
      8766.22      688.002
      8778.58      678.911
      8790.93      676.821
      8803.29      679.266
      8815.64      686.965
      8828.00      684.584
      8840.36      677.086
      8852.71      675.184
      8865.06      678.320
      8877.42      686.859
      8889.78      694.617
      8902.13      699.296
      8914.49      695.537
      8926.84      683.791
      8939.20      665.281
      8951.55      641.513
      8963.91      617.339
      8976.26      595.295
      8988.62      587.963
      9000.97      594.903
      9013.33      629.977
      9025.68      660.441
      9038.04      678.342
      9050.39      665.569
      9062.75      647.329
      9075.10      639.843
      9087.46      642.292
      9099.82      649.174
      9112.17      643.826
      9124.53      637.805
      9136.88      634.847
      9149.24      642.464
      9161.59      654.562
      9173.95      665.980
      9186.30      673.048
      9198.66      675.005
      9211.01      670.075
      9223.37      667.565
      9235.72      674.492
      9248.08      687.350
      9260.43      697.282
      9272.79      677.482
      9285.14      637.684
      9297.50      578.734
      9309.85      532.270
      9322.21      502.987
      9334.56      510.361
      9346.92      544.313
      9359.28      596.962
      9371.63      645.279
      9383.98      669.860
      9396.34      651.974
      9408.70      608.038
      9421.05      562.624
      9433.41      561.279
      9445.76      574.958
      9458.12      598.333
      9470.47      615.336
      9482.83      626.492
      9495.18      627.651
      9507.54      623.815
      9519.89      619.094
      9532.25      627.033
      9544.60      634.803
      9556.96      637.954
      9569.31      627.010
      9581.67      610.546
      9594.02      595.799
      9606.38      587.145
      9618.74      584.508
      9631.09      584.224
      9643.45      592.194
      9655.80      615.986
      9668.16      638.890
      9680.51      656.073
      9692.87      651.597
      9705.22      640.763
      9717.58      626.549
      9729.93      614.928
      9742.29      605.033
      9754.64      597.078
      9767.00      589.548
      9779.35      582.477
      9791.71      578.101
      9804.06      577.782
      9816.42      583.773
      9828.78      589.972
      9841.13      594.331
      9853.49      591.393
      9865.84      584.418
      9878.19      574.338
      9890.55      567.472
      9902.91      566.835
      9915.26      579.052
      9927.62      588.766
      9939.97      594.883
      9952.33      593.129
      9964.68      591.022
      9977.04      589.968
      9989.39      585.331
      10001.7      577.837
      10014.1      566.061
      10026.5      560.621
      10038.8      562.283
      10051.2      569.419
      10063.5      573.518
      10075.9      568.935
      10088.2      566.043
      10100.6      564.932
      10112.9      566.495
      10125.3      568.829
      10137.7      571.368
      10150.0      572.565
      10162.4      573.579
      10174.7      575.838
      10187.1      579.719
      10199.4      582.331
      10211.8      569.569
      10224.1      558.397
      10236.5      556.432
      10248.9      568.458
      10261.2      582.457
      10273.6      578.627
      10285.9      566.003
      10298.3      548.243
      10310.6      547.190
      10323.0      550.370
      10335.3      551.362
      10347.7      548.313
      10360.1      543.533
      10372.4      543.130
      10384.8      546.739
      10397.1      555.271
      10409.5      564.719
      10421.8      569.083
      10434.2      555.830
      10446.5      543.305
      10458.9      534.916
      10471.2      539.734
      10483.6      545.698
      10496.0      547.041
      10508.3      544.814
      10520.7      540.149
      10533.0      533.686
      10545.4      526.715
      10557.7      520.406
      10570.1      521.847
      10582.4      525.903
      10594.8      529.670
      10607.2      530.726
      10619.5      529.826
      10631.9      528.933
      10644.2      528.046
      10656.6      527.120
      10668.9      526.225
      10681.3      525.312
      10693.6      524.403
      10706.0      523.478
      10718.4      522.619
      10730.7      521.680
      10743.1      520.754
      10755.4      519.873
      10767.8      518.976
      10780.1      518.051
      10792.5      517.151
      10804.8      516.268
      10817.2      515.420
      10829.5      514.504
      10841.9      513.673
      10854.3      512.841
      10866.6      511.923
      10879.0      511.078
      10891.3      510.249
      10903.7      509.351
      10916.0      508.483
      10928.4      507.613
      10940.7      506.768
      10953.1      505.922
      10965.5      505.040
      10977.8      504.160
      10990.2      503.339
      11002.5      502.456
      11014.9      501.613
      11027.2      500.814
      11039.6      499.924
      11051.9      499.144
      11064.3      498.291
      11076.7      497.458
      11089.0      496.619
      11101.4      495.814
      11113.7      494.951
      11126.1      494.106
      11138.4      493.302
      11150.8      492.453
      11163.1      491.635
      11175.5      490.793
      11187.9      489.929
      11200.2      489.130
      11212.6      488.325
      11224.9      487.491
      11237.3      486.666
      11249.6      485.886
      11262.0      485.012
      11274.3      484.241
      11286.7      483.408
      11299.0      482.611
      11311.4      481.772
      11323.8      480.961
      11336.1      480.160
      11348.5      479.307
      11360.8      478.554
      11373.2      477.669
      11385.5      476.899
      11397.9      476.050
      11410.2      475.257
      11422.6      474.462
      11435.0      473.632
      11447.3      472.813
      11459.7      472.004
      11472.0      471.193
      11484.4      470.413
      11496.7      469.573
      11509.1      468.741
      11521.4      467.929
      11533.8      467.161
      11546.2      466.330
      11558.5      465.500
      11570.9      464.701
      11583.2      463.871
      11595.6      463.083
      11607.9      462.255
      11620.3      461.444
      11632.6      460.626
      11645.0      459.809
      11657.4      458.991
      11669.7      458.186
      11682.1      457.367
      11694.4      456.536
      11706.8      455.715
      11719.1      454.932
      11731.5      454.085
      11743.8      453.293
      11756.2      452.465
      11768.5      451.648
      11780.9      450.831
      11793.3      449.998
      11805.6      449.196
      11818.0      448.355
      11830.3      447.530
      11842.7      446.716
      11855.0      445.866
      11867.4      445.027
      11879.7      444.233
      11892.1      443.384
      11904.5      442.552
      11916.8      441.727
      11929.2      440.900
      11941.5      440.071
      11953.9      439.236
      11966.2      438.422
      11978.6      437.578
      11990.9      436.746
      12003.3      435.916
      12015.7      435.038
      12028.0      434.228
      12040.4      433.377
      12052.7      432.490
      12065.1      431.661
      12077.4      430.811
      12089.8      429.982
      12102.1      429.103
      12114.5      428.262
      12126.9      427.419
      12139.2      426.548
      12151.6      425.716
      12163.9      424.834
      12176.3      424.029
      12188.6      423.161
      12201.0      422.288
      12213.3      421.412
      12225.7      420.549
      12238.0      419.681
      12250.4      418.778
      12262.8      417.918
      12275.1      417.039
      12287.5      416.154
      12299.8      415.294
      12312.2      414.407
      12324.5      413.536
      12336.9      412.627
      12349.2      411.771
      12361.6      410.889
      12374.0      410.018
      12386.3      409.138
      12398.7      408.270
      12411.0      407.387
      12423.4      406.519
      12435.7      405.645
      12448.1      404.741
      12460.4      403.900
      12472.8      403.016
      12485.2      402.135
      12497.5      401.258
      12509.9      400.425
      12522.2      399.497
      12534.6      398.656
      12546.9      397.766
      12559.3      396.910
      12571.6      395.997
      12584.0      395.150
      12596.4      394.280
      12608.7      393.215
      12621.1      392.083
      12633.4      390.946
      12645.8      389.784
      12658.1      388.660
      12670.5      387.522
      12682.8      386.398
      12695.2      385.244
      12707.5      384.092
      12719.9      382.958
      12732.3      381.840
      12744.6      380.675
      12757.0      379.558
      12769.3      378.430
      12781.7      377.259
      12794.0      376.154
      12806.4      375.428
      12818.7      375.084
      12831.1      374.784
      12843.5      374.442
      12855.8      374.141
      12868.2      373.807
      12880.5      373.494
      12892.9      373.156
      12905.2      372.838
      12917.6      372.515
      12929.9      372.205
      12942.3      371.856
      12954.7      371.556
      12967.0      371.237
      12979.4      370.908
      12991.7      370.560
      13004.1      370.180
      13016.4      369.596
      13028.8      368.997
      13041.1      368.423
      13053.5      367.843
      13065.8      367.268
      13078.2      366.693
      13090.6      366.108
      13102.9      365.496
      13115.3      364.950
      13127.6      364.345
      13140.0      363.788
      13152.3      363.178
      13164.7      362.616
      13177.0      362.025
      13189.4      361.447
      13201.8      360.842
      13214.1      360.253
      13226.5      359.637
      13238.8      359.020
      13251.2      358.427
      13263.5      357.795
      13275.9      357.197
      13288.2      356.554
      13300.6      355.986
      13313.0      355.351
      13325.3      354.733
      13337.7      354.141
      13350.0      353.495
      13362.4      352.917
      13374.7      352.308
      13387.1      351.666
      13399.4      351.061
      13411.8      350.405
      13424.2      349.695
      13436.5      349.014
      13448.9      348.344
      13461.2      347.632
      13473.6      346.975
      13485.9      346.277
      13498.3      345.593
      13510.6      344.915
      13523.0      344.219
      13535.3      343.549
      13547.7      342.844
      13560.1      342.183
      13572.4      341.483
      13584.8      340.792
      13597.1      340.120
      13609.5      339.484
      13621.8      338.883
      13634.2      338.254
      13646.5      337.643
      13658.9      337.051
      13671.3      336.438
      13683.6      335.801
      13696.0      335.220
      13708.3      334.612
      13720.7      333.973
      13733.0      333.387
      13745.4      332.753
      13757.7      332.161
      13770.1      331.535
      13782.5      330.933
      13794.8      330.304
      13807.2      329.758
      13819.5      329.224
      13831.9      328.701
      13844.2      328.162
      13856.6      327.624
      13868.9      327.115
      13881.3      326.553
      13893.7      326.037
      13906.0      325.500
      13918.4      324.965
      13930.7      324.454
      13943.1      323.901
      13955.4      323.389
      13967.8      322.836
      13980.1      322.320
      13992.5      321.808
      14004.8      321.260
      14017.2      320.791
      14029.6      320.332
      14041.9      319.845
      14054.3      319.362
      14066.6      318.881
      14079.0      318.418
      14091.3      317.937
      14103.7      317.447
      14116.0      316.969
      14128.4      316.513
      14140.8      316.035
      14153.1      315.533
      14165.5      315.068
      14177.8      314.588
      14190.2      314.128
      14202.5      313.619
      14214.9      313.126
      14227.2      312.639
      14239.6      312.133
      14252.0      311.640
      14264.3      311.131
      14276.7      310.626
      14289.0      310.153
      14301.4      309.638
      14313.7      309.141
      14326.1      308.650
      14338.4      308.134
      14350.8      307.643
      14363.1      307.140
      14375.5      306.650
      14387.9      306.137
      14400.2      305.663
      14412.6      305.200
      14424.9      304.719
      14437.3      304.275
      14449.6      303.802
      14462.0      303.340
      14474.3      302.874
      14486.7      302.445
      14499.1      301.966
      14511.4      301.501
      14523.8      301.025
      14536.1      300.586
      14548.5      300.126
      14560.8      299.646
      14573.2      299.206
      14585.5      298.742
      14597.9      298.288
      14610.3      297.791
      14622.6      297.315
      14635.0      296.845
      14647.3      296.374
      14659.7      295.887
      14672.0      295.405
      14684.4      294.940
      14696.7      294.440
      14709.1      293.978
      14721.5      293.481
      14733.8      293.022
      14746.2      292.535
      14758.5      292.045
      14770.9      291.586
      14783.2      291.098
      14795.6      290.611
      14807.9      290.138
      14820.3      289.631
      14832.7      289.115
      14845.0      288.635
      14857.4      288.137
      14869.7      287.627
      14882.1      287.121
      14894.4      286.630
      14906.8      286.114
      14919.1      285.631
      14931.5      285.128
      14943.8      284.622
      14956.2      284.118
      14968.6      283.619
      14980.9      283.124
      14993.3      282.626
      15005.6      282.121
      15018.0      281.650
      15030.3      281.152
      15042.7      280.667
      15055.0      280.185
      15067.4      279.689
      15079.8      279.201
      15092.1      278.714
      15104.5      278.232
      15116.8      277.735
      15129.2      277.250
      15141.5      276.784
      15153.9      276.282
      15166.2      275.773
      15178.6      275.313
      15191.0      274.822
      15203.3      274.324
      15215.7      273.856
      15228.0      273.398
      15240.4      272.915
      15252.7      272.448
      15265.1      271.961
      15277.4      271.489
      15289.8      271.028
      15302.1      270.547
      15314.5      270.076
      15326.9      269.604
      15339.2      269.144
      15351.6      268.653
      15363.9      268.179
      15376.3      267.715
      15388.6      267.228
      15401.0      266.796
      15413.3      266.374
      15425.7      265.983
      15438.1      265.606
      15450.4      265.214
      15462.8      264.827
      15475.1      264.424
      15487.5      264.050
      15499.8      263.648
      15512.2      263.252
      15524.5      262.878
      15536.9      262.481
      15549.3      262.083
      15561.6      261.694
      15574.0      261.312
      15586.3      260.908
      15598.7      260.546
      15611.0      260.155
      15623.4      259.827
      15635.7      259.442
      15648.1      259.102
      15660.5      258.765
      15672.8      258.385
      15685.2      258.036
      15697.5      257.675
      15709.9      257.339
      15722.2      256.965
      15734.6      256.615
      15746.9      256.262
      15759.3      255.913
      15771.6      255.532
      15784.0      255.201
      15796.4      254.846
      15808.7      254.586
      15821.1      254.406
      15833.4      254.210
      15845.8      253.993
      15858.1      253.824
      15870.5      253.599
      15882.8      253.431
      15895.2      253.217
      15907.6      253.021
      15919.9      252.826
      15932.3      252.624
      15944.6      252.442
      15957.0      252.236
      15969.3      252.023
      15981.7      251.851
      15994.0      251.651
      16006.4      251.426
      16018.8      251.217
      16031.1      251.005
      16043.5      250.792
      16055.8      250.560
      16068.2      250.348
      16080.5      250.118
      16092.9      249.908
      16105.2      249.701
      16117.6      249.467
      16130.0      249.245
      16142.3      249.032
      16154.7      248.806
      16167.0      248.611
      16179.4      248.376
      16191.7      248.146
      16204.1      247.882
      16216.4      247.508
      16228.8      247.140
      16241.1      246.758
      16253.5      246.406
      16265.9      246.002
      16278.2      245.641
      16290.6      245.274
      16302.9      244.884
      16315.3      244.517
      16327.6      244.143
      16340.0      243.769
      16352.3      243.381
      16364.7      243.019
      16377.1      242.662
      16389.4      242.262
      16401.8      241.873
      16414.1      241.451
      16426.5      241.023
      16438.8      240.620
      16451.2      240.140
      16463.5      239.736
      16475.9      239.303
      16488.3      238.853
      16500.6      238.435
      16513.0      238.002
      16525.3      237.575
      16537.7      237.130
      16550.0      236.691
      16562.4      236.310
      16574.7      235.824
      16587.1      235.411
      16599.4      234.969
      16611.8      234.470
      16624.2      233.973
      16636.5      233.474
      16648.9      232.955
      16661.2      232.451
      16673.6      231.931
      16685.9      231.427
      16698.3      230.921
      16710.6      230.438
      16723.0      229.898
      16735.4      229.411
      16747.7      228.874
      16760.1      228.415
      16772.4      227.878
      16784.8      227.380
      16797.1      226.887
      16809.5      226.535
      16821.8      226.249
      16834.2      225.982
      16846.6      225.705
      16858.9      225.428
      16871.3      225.152
      16883.6      224.883
      16896.0      224.599
      16908.3      224.308
      16920.7      224.044
      16933.0      223.746
      16945.4      223.487
      16957.8      223.212
      16970.1      222.927
      16982.5      222.647
      16994.8      222.358
      17007.2      222.042
      17019.5      221.618
      17031.9      221.238
      17044.2      220.814
      17056.6      220.426
      17069.0      220.048
      17081.3      219.649
      17093.7      219.244
      17106.0      218.816
      17118.4      218.459
      17130.7      218.049
      17143.1      217.654
      17155.4      217.251
      17167.8      216.835
      17180.1      216.465
      17192.5      216.059
      17204.9      215.619
      17217.2      215.123
      17229.6      214.625
      17241.9      214.126
      17254.3      213.627
      17266.6      213.129
      17279.0      212.623
      17291.3      212.124
      17303.7      211.637
      17316.1      211.139
      17328.4      210.643
      17340.8      210.142
      17353.1      209.647
      17365.5      209.148
      17377.8      208.649
      17390.2      208.134
      17402.5      207.716
      17414.9      207.332
      17427.3      207.020
      17439.6      206.689
      17452.0      206.357
      17464.3      206.026
      17476.7      205.705
      17489.0      205.371
      17501.4      205.028
      17513.7      204.705
      17526.1      204.344
      17538.4      204.047
      17550.8      203.698
      17563.2      203.357
      17575.5      203.047
      17587.9      202.707
      17600.2      202.380
      17612.6      202.048
      17624.9      201.752
      17637.3      201.433
      17649.6      201.117
      17662.0      200.814
      17674.4      200.493
      17686.7      200.175
      17699.1      199.878
      17711.4      199.547
      17723.8      199.237
      17736.1      198.922
      17748.5      198.612
      17760.8      198.299
      17773.2      197.986
      17785.6      197.685
      17797.9      197.333
      17810.3      197.004
      17822.6      196.634
      17835.0      196.263
      17847.3      195.858
      17859.7      195.517
      17872.0      195.155
      17884.4      194.748
      17896.8      194.401
      17909.1      194.038
      17921.5      193.643
      17933.8      193.279
      17946.2      192.907
      17958.5      192.535
      17970.9      192.164
      17983.2      191.782
      17995.6      191.426
      18007.9      191.002
      18020.3      190.570
      18032.7      190.134
      18045.0      189.698
      18057.4      189.255
      18069.7      188.833
      18082.1      188.396
      18094.4      187.953
      18106.8      187.517
      18119.1      187.091
      18131.5      186.627
      18143.9      186.201
      18156.2      185.800
      18168.6      185.310
      18180.9      184.915
      18193.3      184.478
      18205.6      184.147
      18218.0      183.952
      18230.3      183.762
      18242.7      183.573
      18255.1      183.372
      18267.4      183.193
      18279.8      183.013
      18292.1      182.801
      18304.5      182.614
      18316.8      182.446
      18329.2      182.245
      18341.5      182.057
      18353.9      181.869
      18366.3      181.685
      18378.6      181.474
      18391.0      181.307
      18403.3      181.062
      18415.7      180.825
      18428.0      180.560
      18440.4      180.296
      18452.7      180.043
      18465.1      179.780
      18477.4      179.506
      18489.8      179.228
      18502.2      178.973
      18514.5      178.710
      18526.9      178.451
      18539.2      178.197
      18551.6      177.907
      18563.9      177.660
      18576.3      177.384
      18588.6      177.152
      18601.0      176.829
      18613.4      176.424
      18625.7      175.980
      18638.1      175.573
      18650.4      175.139
      18662.8      174.716
      18675.1      174.283
      18687.5      173.855
      18699.8      173.435
      18712.2      172.991
      18724.5      172.570
      18736.9      172.148
      18749.3      171.700
      18761.6      171.277
      18774.0      170.865
      18786.3      170.429
      18798.7      170.036
      18811.0      169.836
      18823.4      169.689
      18835.7      169.549
      18848.1      169.407
      18860.5      169.270
      18872.8      169.120
      18885.2      168.988
      18897.5      168.838
      18909.9      168.720
      18922.2      168.566
      18934.6      168.441
      18946.9      168.292
      18959.3      168.137
      18971.7      167.993
      18984.0      167.880
      18996.4      167.720
      19008.7      167.462
      19021.1      167.169
      19033.4      166.858
      19045.8      166.557
      19058.1      166.236
      19070.5      165.950
      19082.9      165.623
      19095.2      165.332
      19107.6      165.013
      19119.9      164.732
      19132.3      164.405
      19144.6      164.110
      19157.0      163.790
      19169.3      163.503
      19181.7      163.172
      19194.1      162.869
      19206.4      162.579
      19218.8      162.257
      19231.1      161.946
      19243.5      161.638
      19255.8      161.323
      19268.2      161.024
      19280.5      160.692
      19292.9      160.412
      19305.3      160.056
      19317.6      159.795
      19330.0      159.451
      19342.3      159.146
      19354.7      158.836
      19367.0      158.525
      19379.4      158.213
      19391.7      157.899
      19404.1      157.641
      19416.4      157.428
      19428.8      157.209
      19441.2      156.998
      19453.5      156.812
      19465.9      156.600
      19478.2      156.401
      19490.6      156.184
      19502.9      155.984
      19515.3      155.756
      19527.6      155.579
      19540.0      155.347
      19552.4      155.168
      19564.7      154.943
      19577.1      154.751
      19589.4      154.518
      19601.8      154.340
      19614.1      154.121
      19626.5      153.895
      19638.8      153.687
      19651.2      153.453
      19663.5      153.237
      19675.9      153.043
      19688.3      152.828
      19700.6      152.588
      19713.0      152.372
      19725.3      152.181
      19737.7      151.962
      19750.0      151.730
      19762.4      151.513
      19774.7      151.305
      19787.1      151.093
      19799.5      150.857
      19811.8      150.637
      19824.2      150.405
      19836.5      150.164
      19848.9      149.903
      19861.2      149.703
      19873.6      149.446
      19885.9      149.220
      19898.3      148.952
      19910.7      148.750
      19923.0      148.508
      19935.4      148.249
      19947.7      148.038
      19960.1      147.784
      19972.4      147.557
      19984.8      147.324
      19997.1      147.073
      20009.5      146.858
      20021.9      146.638
      20034.2      146.421
      20046.6      146.192
      20058.9      145.992
      20071.3      145.760
      20083.6      145.544
      20096.0      145.326
      20108.3      145.111
      20120.7      144.891
      20133.1      144.672
      20145.4      144.451
      20157.8      144.235
      20170.1      144.009
      20182.5      143.809
      20194.8      143.574
      20207.2      143.374
      20219.5      143.141
      20231.9      142.911
      20244.2      142.707
      20256.6      142.472
      20269.0      142.258
      20281.3      142.041
      20293.7      141.818
      20306.0      141.597
      20318.4      141.368
      20330.7      141.159
      20343.1      140.938
      20355.4      140.711
      20367.8      140.514
      20380.2      140.265
      20392.5      140.055
      20404.9      139.832
      20417.2      139.583
      20429.6      139.320
      20441.9      139.101
      20454.3      138.855
      20466.6      138.582
      20479.0      138.366
      20491.4      138.114
      20503.7      137.862
      20516.1      137.642
      20528.4      137.372
      20540.8      137.131
      20553.1      136.910
      20565.5      136.643
      20577.8      136.400
      20590.2      136.147
      20602.6      135.921
      20614.9      135.712
      20627.3      135.481
      20639.6      135.265
      20652.0      135.021
      20664.3      134.825
      20676.7      134.599
      20689.0      134.389
      20701.4      134.147
      20713.7      133.940
      20726.1      133.730
      20738.5      133.506
      20750.8      133.276
      20763.2      133.054
      20775.5      132.850
      20787.9      132.613
      20800.2      132.399
      20812.6      132.170
      20824.9      131.950
      20837.3      131.708
      20849.7      131.485
      20862.0      131.262
      20874.4      131.015
      20886.7      130.800
      20899.1      130.543
      20911.4      130.341
      20923.8      130.105
      20936.1      129.882
      20948.5      129.642
      20960.9      129.414
      20973.2      129.171
      20985.6      128.964
      20997.9      128.726
      21010.3      128.491
      21022.6      128.270
      21035.0      128.050
      21047.3      127.816
      21059.7      127.597
      21072.1      127.364
      21084.4      127.136
      21096.8      126.919
      21109.1      126.683
      21121.5      126.457
      21133.8      126.223
      21146.2      126.007
      21158.5      125.775
      21170.9      125.552
      21183.2      125.326
      21195.6      125.101
      21208.0      124.912
      21220.3      124.758
      21232.7      124.591
      21245.0      124.428
      21257.4      124.255
      21269.7      124.099
      21282.1      123.931
      21294.4      123.783
      21306.8      123.615
      21319.2      123.459
      21331.5      123.286
      21343.9      123.123
      21356.2      122.956
      21368.6      122.803
      21380.9      122.638
      21393.3      122.474
      21405.6      122.273
      21418.0      122.011
      21430.4      121.748
      21442.7      121.475
      21455.1      121.221
      21467.4      120.963
      21479.8      120.688
      21492.1      120.440
      21504.5      120.166
      21516.8      119.907
      21529.2      119.653
      21541.6      119.380
      21553.9      119.117
      21566.3      118.852
      21578.6      118.598
      21591.0      118.336
      21603.3      118.116
      21615.7      117.996
      21628.0      117.857
      21640.4      117.725
      21652.7      117.604
      21665.1      117.485
      21677.5      117.335
      21689.8      117.231
      21702.2      117.105
      21714.5      116.965
      21726.9      116.842
      21739.2      116.710
      21751.6      116.597
      21763.9      116.465
      21776.3      116.338
      21788.7      116.212
      21801.0      116.079
      21813.4      115.966
      21825.7      115.834
      21838.1      115.708
      21850.4      115.582
      21862.8      115.449
      21875.1      115.349
      21887.5      115.199
      21899.9      115.079
      21912.2      114.955
      21924.6      114.829
      21936.9      114.709
      21949.3      114.572
      21961.6      114.446
      21974.0      114.328
      21986.3      114.202
      21998.7      114.073
      22011.0      113.943
      22023.4      113.803
      22035.8      113.636
      22048.1      113.515
      22060.5      113.363
      22072.8      113.234
      22085.2      113.085
      22097.5      112.948
      22109.9      112.800
      22122.2      112.662
      22134.6      112.519
      22147.0      112.377
      22159.3      112.236
      22171.7      112.096
      22184.0      111.941
      22196.4      111.821
      22208.7      111.655
      22221.1      111.480
      22233.4      111.319
      22245.8      111.151
      22258.2      110.998
      22270.5      110.820
      22282.9      110.675
      22295.2      110.490
      22307.6      110.330
      22319.9      110.159
      22332.3      110.007
      22344.6      109.835
      22357.0      109.664
      22369.4      109.512
      22381.7      109.336
      22394.1      109.177
      22406.4      109.019
      22418.8      108.883
      22431.1      108.715
      22443.5      108.583
      22455.8      108.457
      22468.2      108.290
      22480.5      108.158
      22492.9      107.999
      22505.3      107.862
      22517.6      107.721
      22530.0      107.576
      22542.3      107.427
      22554.7      107.278
      22567.0      107.132
      22579.4      107.003
      22591.7      106.857
      22604.1      106.692
      22616.5      106.558
      22628.8      106.426
      22641.2      106.270
      22653.5      106.142
      22665.9      105.982
      22678.2      105.844
      22690.6      105.702
      22702.9      105.557
      22715.3      105.419
      22727.7      105.267
      22740.0      105.117
      22752.4      104.988
      22764.7      104.827
      22777.1      104.699
      22789.4      104.549
      22801.8      104.414
      22814.1      104.270
      22826.5      104.118
      22838.8      103.986
      22851.2      103.837
      22863.6      103.697
      22875.9      103.549
      22888.3      103.414
      22900.6      103.269
      22913.0      103.126
      22925.3      102.991
      22937.7      102.840
      22950.0      102.707
      22962.4      102.561
      22974.8      102.411
      22987.1      102.280
      22999.5      102.131
      23011.8      101.994
      23024.2      101.833
      23036.5      101.698
      23048.9      101.551
      23061.2      101.401
      23073.6      101.260
      23086.0      101.107
      23098.3      100.973
      23110.7      100.817
      23123.0      100.685
      23135.4      100.534
      23147.7      100.385
      23160.1      100.243
      23172.4      100.083
      23184.8      99.9537
      23197.2      99.7972
      23209.5      99.6746
      23221.9      99.5546
      23234.2      99.4241
      23246.6      99.3081
      23258.9      99.1742
      23271.3      99.0535
      23283.6      98.9378
      23296.0      98.8113
      23308.4      98.6873
      23320.7      98.5556
      23333.1      98.4329
      23345.4      98.3251
      23357.8      98.1884
      23370.1      98.0715
      23382.5      97.9346
      23394.8      97.8144
      23407.2      97.7207
      23419.5      97.6038
      23431.9      97.5088
      23444.3      97.4022
      23456.6      97.3130
      23469.0      97.2009
      23481.3      97.1132
      23493.7      97.0061
      23506.0      96.9076
      23518.4      96.8046
      23530.7      96.6987
      23543.1      96.6063
      23555.5      96.5002
      23567.8      96.4013
      23580.2      96.3065
      23592.5      96.1951
      23604.9      96.0782
      23617.2      95.9340
      23629.6      95.7736
      23641.9      95.6277
      23654.3      95.4836
      23666.7      95.3232
      23679.0      95.1776
      23691.4      95.0145
      23703.7      94.8782
      23716.1      94.7287
      23728.4      94.5675
      23740.8      94.4161
      23753.1      94.2733
      23765.5      94.1274
      23777.8      93.9615
      23790.2      93.8270
      23802.6      93.6741
      23814.9      93.5361
      23827.3      93.4226
      23839.6      93.2903
      23852.0      93.1580
      23864.3      93.0427
      23876.7      92.9043
      23889.0      92.7863
      23901.4      92.6492
      23913.8      92.5325
      23926.1      92.3974
      23938.5      92.2606
      23950.8      92.1465
      23963.2      92.0208
      23975.5      91.8848
      23987.9      91.7605
      24000.2      91.6389
      24012.6      91.5352
      24025.0      91.4382
      24037.3      91.3369
      24049.7      91.2386
      24062.0      91.1382
      24074.4      91.0384
      24086.7      90.9409
      24099.1      90.8449
      24111.4      90.7463
      24123.8      90.6373
      24136.2      90.5501
      24148.5      90.4404
      24160.9      90.3414
      24173.2      90.2569
      24185.6      90.1387
      24197.9      90.0488
      24210.3      89.9210
      24222.6      89.7952
      24235.0      89.6543
      24247.3      89.5275
      24259.7      89.3804
      24272.1      89.2498
      24284.4      89.1287
      24296.8      88.9938
      24309.1      88.8509
      24321.5      88.7168
      24333.8      88.5889
      24346.2      88.4558
      24358.5      88.3313
      24370.9      88.1840
      24383.3      88.0512
      24395.6      87.9267
      24408.0      87.7919
      24420.3      87.6710
      24432.7      87.5361
      24445.0      87.4202
      24457.4      87.2875
      24469.7      87.1648
      24482.1      87.0396
      24494.5      86.9071
      24506.8      86.7935
      24519.2      86.6549
      24531.5      86.5417
      24543.9      86.4095
      24556.2      86.2816
      24568.6      86.1522
      24580.9      86.0283
      24593.3      85.9055
      24605.7      85.7837
      24618.0      85.6866
      24630.4      85.5826
      24642.7      85.4589
      24655.1      85.3691
      24667.4      85.2511
      24679.8      85.1490
      24692.1      85.0472
      24704.5      84.9317
      24716.8      84.8247
      24729.2      84.7230
      24741.6      84.6171
      24753.9      84.5082
      24766.3      84.4040
      24778.6      84.3036
      24791.0      84.1913
      24803.3      84.0744
      24815.7      83.9450
      24828.0      83.8184
      24840.4      83.6885
      24852.8      83.5455
      24865.1      83.4157
      24877.5      83.2911
      24889.8      83.1543
      24902.2      83.0226
      24914.5      82.8994
      24926.9      82.7669
      24939.2      82.6257
      24951.6      82.4993
      24964.0      82.3710
      24976.3      82.2313
      24988.7      82.1002
      25001.0      81.9830
      25013.4      81.8908
      25025.7      81.8130
      25038.1      81.7266
      25050.4      81.6406
      25062.8      81.5507
      25075.1      81.4795
      25087.5      81.3933
      25099.9      81.3025
      25112.2      81.2136
      25124.6      81.1406
      25136.9      81.0570
      25149.3      80.9606
      25161.6      80.8891
      25174.0      80.8067
      25186.3      80.7081
      25198.7      80.6303
      25211.1      80.5262
      25223.4      80.4215
      25235.8      80.3144
      25248.1      80.1949
      25260.5      80.0880
      25272.8      79.9851
      25285.2      79.8752
      25297.5      79.7610
      25309.9      79.6613
      25322.3      79.5527
      25334.6      79.4395
      25347.0      79.3258
      25359.3      79.2184
      25371.7      79.1193
      25384.0      79.0008
      25396.4      78.8929
      25408.7      78.7887
      25421.1      78.6725
      25433.5      78.5645
      25445.8      78.4529
      25458.2      78.3459
      25470.5      78.2300
      25482.9      78.1237
      25495.2      78.0025
      25507.6      77.9031
      25519.9      77.7933
      25532.3      77.6765
      25544.7      77.5582
      25557.0      77.4544
      25569.4      77.3490
      25581.7      77.2311
      25594.1      77.1516
