# spectrum  Type     U-V    B-V    V-R    V-I    V-J    V-K
# ---------------------------------------------------------
# bpgs_57  K4V      1.84   0.92   0.64   1.13   1.75   2.40
#
# lambda (Angstroms)  flux (phot/lambda)
#----------------------------------------------------------
PHOTLAM
      1985.67    0.0502397
      1997.48     0.156558
      2009.29     0.299589
      2021.10     0.181736
      2032.91     0.252260
      2044.72     0.301720
      2056.53     0.355226
      2068.34     0.524890
      2080.15     0.665901
      2091.96     0.616131
      2103.77     0.347153
      2115.58     0.257495
      2127.39     0.643051
      2139.20     0.636900
      2151.01     0.183403
      2162.82     0.192036
      2174.63     0.204658
      2186.44    0.0912522
      2198.25     0.253436
      2210.06     0.262425
      2221.87    0.0631772
      2233.68    0.0330693
      2245.49     0.352717
      2257.30     0.669130
      2269.11     0.652792
      2280.92     0.574902
      2292.73     0.211457
      2304.55     0.174223
      2316.36     0.384066
      2328.17     0.997736
      2339.98     0.865871
      2351.79     0.420158
      2363.60     0.803792
      2375.41      1.06824
      2387.22     0.951688
      2399.03     0.606112
      2410.84     0.243812
      2422.65     0.850715
      2434.46     0.677778
      2446.27     0.776523
      2458.08      1.16148
      2469.89      1.15276
      2481.70      1.15039
      2493.51     0.918124
      2505.32      1.06287
      2517.13     0.933363
      2528.94      1.20433
      2540.75      1.63022
      2552.56      1.59740
      2564.37      1.77452
      2576.18      1.19942
      2587.99      1.25491
      2599.80      1.97310
      2611.61      2.70640
      2623.42      2.80472
      2635.23      3.66343
      2647.04      3.72357
      2658.85      4.03497
      2670.66      4.14733
      2682.47      4.65592
      2694.28      3.91179
      2706.09      3.72189
      2717.90      4.00713
      2729.71      4.67064
      2741.52      5.21689
      2753.33      5.60814
      2765.14      7.01478
      2776.95      8.50619
      2788.76      9.52570
      2800.58      11.9539
      2812.39      8.84099
      2824.20      9.21005
      2836.01      8.78893
      2847.82      6.76039
      2859.63      6.24799
      2871.44      9.59514
      2883.25      12.0220
      2895.06      17.0885
      2906.87      21.9694
      2918.68      22.7351
      2930.49      21.2335
      2942.30      20.2563
      2954.11      20.7993
      2965.92      18.6598
      2977.73      20.2273
      2989.54      20.7902
      3001.35      18.1320
      3013.16      20.3510
      3024.97      22.2572
      3036.78      28.4439
      3048.59      29.7979
      3060.40      30.8991
      3072.21      39.9565
      3084.02      41.6021
      3095.83      41.3578
      3107.64      54.6097
      3119.45      54.3443
      3131.26      56.4035
      3143.07      63.9162
      3154.88      61.5717
      3166.69      61.1358
      3178.50      77.1479
      3190.31      74.7752
      3202.12      77.2406
      3213.93      73.5918
      3225.74      77.5420
      3237.55      89.7570
      3249.36      98.0707
      3261.17      104.335
      3272.99      108.497
      3284.80      117.775
      3296.61      129.599
      3308.42      123.976
      3320.23      120.836
      3332.04      117.772
      3343.85      123.901
      3355.66      121.020
      3367.47      110.037
      3379.28      116.629
      3391.09      129.995
      3402.90      131.056
      3414.71      125.709
      3426.52      126.742
      3438.33      112.938
      3450.14      115.422
      3461.95      125.201
      3473.76      123.399
      3485.57      128.890
      3497.38      134.333
      3509.19      147.064
      3521.00      136.773
      3532.81      150.393
      3544.62      161.729
      3556.43      138.803
      3568.24      115.180
      3580.05      110.958
      3591.86      121.367
      3603.67      129.004
      3615.48      135.766
      3627.29      149.546
      3639.10      150.075
      3650.91      174.148
      3662.72      195.811
      3674.53      193.717
      3686.34      189.403
      3698.15      175.923
      3709.96      146.540
      3721.77      128.372
      3733.58      110.108
      3745.39      114.071
      3757.20      133.707
      3769.01      170.696
      3780.82      188.557
      3792.64      162.741
      3804.45      153.135
      3816.26      126.376
      3828.07      111.896
      3839.88      121.014
      3851.69      132.321
      3863.50      129.734
      3875.31      135.131
      3887.12      157.281
      3898.93      174.235
      3910.74      190.994
      3922.55      163.331
      3934.36      158.128
      3946.17      188.884
      3957.98      189.718
      3969.79      208.800
      3981.60      288.552
      3993.41      360.202
      4005.22      389.797
      4017.03      397.682
      4028.84      369.922
      4040.65      362.303
      4052.46      363.777
      4064.27      369.026
      4076.08      401.763
      4087.89      437.108
      4099.70      432.600
      4111.51      438.929
      4123.32      433.345
      4135.13      405.915
      4146.94      404.172
      4158.75      423.715
      4170.56      428.457
      4182.37      416.621
      4194.18      415.634
      4205.99      437.454
      4217.80      398.603
      4229.61      381.549
      4241.42      411.713
      4253.23      424.182
      4265.04      427.257
      4276.85      425.877
      4288.66      412.381
      4300.48      399.029
      4312.29      478.904
      4324.10      543.301
      4335.91      570.764
      4347.72      604.708
      4359.53      628.741
      4371.34      590.006
      4383.15      551.543
      4394.96      571.286
      4406.77      588.397
      4418.58      631.160
      4430.39      648.057
      4442.20      663.825
      4454.01      638.809
      4465.82      692.418
      4477.63      746.462
      4489.44      762.126
      4501.25      793.602
      4513.06      781.067
      4524.87      730.167
      4536.68      756.552
      4548.49      808.938
      4560.30      817.789
      4572.11      822.420
      4583.92      820.238
      4595.73      821.937
      4607.54      842.836
      4619.35      834.157
      4631.16      841.130
      4642.97      836.866
      4654.78      837.404
      4666.59      826.171
      4678.40      835.595
      4690.21      822.371
      4702.02      831.030
      4713.83      850.467
      4725.64      854.536
      4737.45      872.450
      4749.26      863.706
      4761.07      847.088
      4772.89      843.102
      4784.70      866.806
      4796.51      913.555
      4808.32      918.049
      4820.13      896.442
      4831.94      878.518
      4843.75      876.542
      4855.56      848.472
      4867.37      847.055
      4879.18      830.497
      4890.99      861.513
      4902.80      878.259
      4914.61      843.233
      4926.42      860.725
      4938.23      856.665
      4950.04      864.184
      4961.85      866.133
      4973.66      849.035
      4985.47      820.719
      4997.28      807.357
      5009.09      793.528
      5020.90      815.914
      5032.71      808.037
      5044.52      792.650
      5056.33      801.423
      5068.14      766.438
      5079.95      763.840
      5091.76      761.327
      5103.57      737.032
      5115.38      757.600
      5127.19      748.765
      5139.00      731.094
      5150.81      711.682
      5162.62      641.241
      5174.43      614.467
      5186.24      702.989
      5198.05      730.742
      5209.86      781.259
      5221.67      845.522
      5233.48      877.619
      5245.29      895.758
      5257.11      826.703
      5268.92      826.446
      5280.73      938.080
      5292.54      944.873
      5304.35      956.630
      5316.16      929.202
      5327.97      894.556
      5339.78      940.903
      5351.59      975.905
      5363.40      953.287
      5375.21      981.697
      5387.02      970.860
      5398.83      920.081
      5410.64      954.893
      5422.45      999.613
      5434.26      1024.46
      5446.07      1037.21
      5457.88      1034.56
      5469.69      1030.06
      5481.50      1053.10
      5493.31      1076.48
      5505.12      1070.78
      5516.93      1053.95
      5528.74      1065.35
      5540.55      1098.53
      5552.36      1098.96
      5564.17      1065.58
      5575.98      1038.45
      5587.79      1033.09
      5599.60      1083.33
      5611.41      1100.08
      5623.22      1095.91
      5635.03      1117.31
      5646.84      1118.60
      5658.65      1124.71
      5670.46      1132.17
      5682.27      1122.87
      5694.08      1134.95
      5705.89      1108.56
      5717.70      1131.44
      5729.51      1176.83
      5741.32      1207.55
      5753.13      1221.67
      5764.94      1228.74
      5776.75      1228.58
      5788.57      1227.96
      5800.38      1226.46
      5812.19      1221.10
      5824.00      1221.62
      5835.81      1233.19
      5847.62      1222.21
      5859.43      1195.17
      5871.24      1151.29
      5883.05      1120.81
      5894.86      1130.39
      5906.67      1155.97
      5918.48      1192.23
      5930.29      1223.12
      5942.10      1246.59
      5953.91      1251.60
      5965.72      1253.64
      5977.53      1254.00
      5989.34      1255.13
      6001.15      1257.18
      6012.96      1262.72
      6024.77      1268.27
      6036.58      1273.41
      6048.39      1279.00
      6060.20      1281.74
      6072.01      1267.68
      6083.82      1259.03
      6095.63      1265.37
      6107.44      1272.84
      6119.25      1277.62
      6131.06      1259.19
      6142.87      1242.95
      6154.68      1244.51
      6166.49      1248.10
      6178.30      1254.05
      6190.11      1275.53
      6201.92      1289.09
      6213.73      1262.83
      6225.54      1249.55
      6237.35      1254.02
      6249.16      1250.16
      6260.97      1243.24
      6272.79      1237.61
      6284.60      1244.23
      6296.41      1268.39
      6308.22      1274.93
      6320.03      1271.39
      6331.84      1260.76
      6343.65      1262.30
      6355.46      1290.11
      6367.27      1301.02
      6379.08      1297.89
      6390.89      1276.44
      6402.70      1260.34
      6414.51      1268.93
      6426.32      1267.46
      6438.13      1257.83
      6449.94      1271.06
      6461.75      1289.13
      6473.56      1299.66
      6485.37      1306.50
      6497.18      1309.89
      6508.99      1313.87
      6520.80      1315.86
      6532.61      1307.64
      6544.42      1298.19
      6556.23      1288.97
      6568.04      1286.27
      6579.85      1289.53
      6591.66      1308.50
      6603.47      1323.56
      6615.28      1324.53
      6627.09      1311.89
      6638.90      1293.50
      6650.71      1304.43
      6662.52      1317.52
      6674.33      1317.03
      6686.14      1315.46
      6697.95      1314.57
      6709.76      1325.21
      6721.57      1338.29
      6733.38      1346.72
      6745.19      1350.34
      6757.00      1348.87
      6768.82      1355.37
      6780.63      1360.46
      6792.44      1342.77
      6804.25      1334.08
      6816.06      1345.45
      6827.87      1357.22
      6839.68      1364.93
      6851.49      1346.72
      6863.30      1326.69
      6875.11      1313.80
      6886.92      1317.40
      6898.73      1332.20
      6910.54      1340.61
      6922.35      1346.89
      6934.16      1351.91
      6945.97      1355.31
      6957.78      1356.79
      6969.59      1351.53
      6981.40      1338.90
      6993.21      1306.92
      7005.02      1303.73
      7016.83      1339.88
      7028.64      1355.65
      7040.45      1359.43
      7052.26      1348.60
      7064.07      1344.32
      7075.88      1355.00
      7087.69      1354.73
      7099.50      1346.33
      7111.31      1327.99
      7123.12      1313.77
      7134.93      1313.78
      7146.74      1316.98
      7158.55      1324.41
      7170.36      1353.31
      7182.17      1380.73
      7193.98      1386.54
      7205.79      1385.03
      7217.60      1377.46
      7229.41      1365.69
      7241.22      1353.81
      7253.03      1347.45
      7264.84      1345.97
      7276.65      1350.46
      7288.46      1355.46
      7300.28      1358.58
      7312.09      1351.29
      7323.90      1337.78
      7335.71      1316.11
      7347.52      1302.58
      7359.33      1296.78
      7371.14      1309.13
      7382.95      1318.96
      7394.76      1313.17
      7406.57      1310.82
      7418.38      1313.00
      7430.19      1326.70
      7442.00      1341.83
      7453.81      1350.79
      7465.62      1347.48
      7477.43      1332.42
      7489.24      1335.38
      7501.05      1339.74
      7512.86      1321.40
      7524.67      1314.06
      7536.48      1326.53
      7548.29      1335.74
      7560.10      1331.86
      7571.91      1263.26
      7583.72      1210.77
      7595.53      1211.91
      7607.34      1331.28
      7619.15      1501.63
      7630.96      1481.21
      7642.77      1424.60
      7654.58      1385.03
      7666.39      1331.54
      7678.20      1270.75
      7690.01      1272.12
      7701.82      1289.54
      7713.63      1298.16
      7725.44      1314.73
      7737.25      1340.03
      7749.06      1342.38
      7760.88      1335.29
      7772.69      1327.09
      7784.49      1333.76
      7796.31      1362.98
      7808.12      1372.53
      7819.93      1371.46
      7831.74      1368.38
      7843.55      1369.73
      7855.36      1380.02
      7867.17      1367.90
      7878.98      1343.50
      7890.79      1345.95
      7902.60      1357.32
      7914.41      1375.26
      7926.22      1375.34
      7938.03      1360.23
      7949.84      1363.23
      7961.65      1369.26
      7973.46      1365.21
      7985.27      1364.24
      7997.08      1367.79
      8008.89      1368.65
      8020.70      1368.10
      8032.51      1367.00
      8044.32      1368.65
      8056.13      1373.91
      8067.94      1349.58
      8079.75      1316.49
      8091.56      1330.72
      8103.37      1351.91
      8115.18      1369.10
      8126.99      1375.06
      8138.80      1372.68
      8150.61      1367.46
      8162.42      1360.31
      8174.23      1350.09
      8186.04      1348.08
      8197.85      1353.26
      8209.66      1345.44
      8221.47      1335.53
      8233.28      1332.77
      8245.10      1345.94
      8256.90      1376.35
      8268.71      1366.00
      8280.52      1342.82
      8292.34      1345.15
      8304.15      1334.83
      8315.96      1296.84
      8327.76      1270.84
      8339.58      1259.57
      8351.39      1299.17
      8363.20      1331.48
      8375.01      1325.05
      8386.82      1324.13
      8398.63      1328.92
      8410.44      1337.12
      8422.25      1334.71
      8434.06      1298.54
      8445.87      1296.11
      8457.68      1327.02
      8469.49      1314.34
      8481.30      1291.73
      8493.11      1289.99
      8504.92      1283.41
      8516.73      1267.16
      8528.54      1258.57
      8540.35      1256.75
      8552.16      1272.81
      8563.97      1295.71
      8575.78      1325.33
      8587.59      1320.36
      8599.40      1299.50
      8611.21      1314.87
      8623.02      1325.04
      8634.83      1304.55
      8646.64      1292.24
      8658.45      1289.40
      8670.26      1301.96
      8682.07      1312.50
      8693.88      1303.57
      8705.69      1298.10
      8717.50      1297.93
      8729.31      1293.68
      8741.12      1291.47
      8752.93      1304.57
      8764.74      1307.99
      8776.55      1294.18
      8788.37      1256.06
      8800.18      1219.01
      8811.99      1252.13
      8823.80      1277.76
      8835.61      1268.48
      8847.42      1277.47
      8859.23      1298.06
      8871.04      1315.78
      8882.85      1321.81
      8894.66      1301.41
      8906.47      1284.71
      8918.28      1274.87
      8930.09      1293.40
      8941.90      1311.44
      8953.71      1302.00
      8965.52      1313.03
      8977.33      1348.52
      8989.14      1355.54
      9000.95      1356.19
      9012.76      1376.21
      9024.57      1393.85
      9036.38      1403.88
      9048.19      1390.76
      9060.00      1365.13
      9071.81      1335.68
      9083.62      1330.44
      9095.43      1373.40
      9107.24      1376.06
      9119.05      1351.88
      9130.86      1339.61
      9142.67      1323.15
      9154.48      1288.06
      9166.29      1289.21
      9178.10      1321.20
      9189.91      1325.21
      9201.72      1317.65
      9213.53      1299.58
      9225.34      1289.26
      9237.15      1288.51
      9248.96      1278.17
      9260.78      1265.05
      9272.58      1256.34
      9284.40      1258.26
      9296.21      1275.54
      9308.02      1291.65
      9319.83      1322.55
      9331.64      1446.74
      9343.45      1516.90
      9355.26      1441.45
      9367.07      1403.12
      9378.88      1395.34
      9390.69      1388.86
      9402.50      1367.27
      9414.31      1305.10
      9426.12      1303.23
      9437.93      1358.44
      9449.74      1392.45
      9461.55      1409.16
      9473.36      1389.47
      9485.17      1366.13
      9496.98      1342.40
      9508.79      1311.50
      9520.60      1285.60
      9532.41      1298.03
      9544.22      1310.53
      9556.03      1314.17
      9567.84      1311.46
      9579.65      1309.38
      9591.46      1333.46
      9603.27      1349.54
      9615.08      1337.69
      9626.89      1315.94
      9638.70      1291.03
      9650.51      1294.10
      9662.32      1296.57
      9674.13      1276.48
      9685.94      1265.42
      9697.75      1264.47
      9709.56      1258.01
      9721.37      1253.30
      9733.18      1261.78
      9744.99      1268.72
      9756.80      1271.36
      9768.62      1264.70
      9780.43      1254.74
      9792.24      1249.08
      9804.04      1247.00
      9815.86      1250.64
      9827.67      1247.94
      9839.48      1240.18
      9851.29      1224.61
      9863.10      1207.31
      9874.91      1190.40
      9886.72      1188.60
      9898.53      1198.06
      9910.34      1199.48
      9922.15      1194.95
      9933.96      1179.51
      9945.77      1175.44
      9957.58      1183.90
      9969.39      1193.98
      9981.20      1200.29
      9993.01      1190.27
      10004.8      1184.73
      10016.6      1188.38
      10028.4      1198.31
      10040.3      1208.03
      10052.1      1202.33
      10063.9      1199.97
      10075.7      1208.57
      10087.5      1211.80
      10099.3      1209.05
      10111.1      1189.40
      10122.9      1172.69
      10134.7      1171.34
      10146.5      1165.73
      10158.4      1157.50
      10170.2      1166.00
      10182.0      1172.43
      10193.8      1157.63
      10205.6      1148.40
      10217.4      1146.08
      10229.2      1130.28
      10241.0      1118.95
      10252.8      1147.44
      10264.6      1159.19
      10276.5      1140.25
      10288.3      1137.49
      10300.1      1141.36
      10311.9      1135.10
      10323.7      1129.98
      10335.5      1130.53
      10347.3      1137.59
      10359.1      1148.40
      10370.9      1156.31
      10382.7      1152.38
      10394.6      1121.03
      10406.4      1118.56
      10418.2      1140.29
      10430.0      1133.58
      10441.8      1126.11
      10453.6      1145.15
      10465.4      1157.64
      10477.2      1159.93
      10489.0      1161.57
      10500.8      1166.02
      10512.7      1182.60
      10524.5      1183.90
      10536.3      1159.68
      10548.1      1139.67
      10559.9      1124.85
      10571.7      1125.66
      10583.5      1128.79
      10595.3      1130.52
      10607.1      1130.62
      10619.0      1129.48
      10630.8      1128.28
      10642.6      1127.18
      10654.4      1126.06
      10666.2      1124.91
      10678.0      1123.78
      10689.8      1122.63
      10701.6      1121.47
      10713.4      1120.37
      10725.2      1119.20
      10737.1      1118.13
      10748.9      1116.96
      10760.7      1115.82
      10772.5      1114.64
      10784.3      1113.56
      10796.1      1112.39
      10807.9      1111.20
      10819.7      1110.07
      10831.5      1108.89
      10843.3      1107.68
      10855.2      1106.53
      10867.0      1105.27
      10878.8      1104.19
      10890.6      1102.96
      10902.4      1101.75
      10914.2      1100.61
      10926.0      1099.38
      10937.8      1098.23
      10949.6      1097.04
      10961.4      1095.84
      10973.3      1094.72
      10985.1      1093.46
      10996.9      1092.37
      11008.7      1091.08
      11020.5      1089.90
      11032.3      1088.75
      11044.1      1087.51
      11055.9      1086.33
      11067.7      1085.11
      11079.6      1083.88
      11091.4      1082.73
      11103.2      1081.47
      11115.0      1080.29
      11126.8      1079.15
      11138.6      1077.90
      11150.4      1076.65
      11162.2      1075.52
      11174.0      1074.33
      11185.8      1073.07
      11197.7      1071.90
      11209.5      1070.73
      11221.3      1069.47
      11233.1      1068.28
      11244.9      1067.20
      11256.7      1065.96
      11268.5      1064.72
      11280.3      1063.58
      11292.1      1062.31
      11303.9      1061.25
      11315.8      1059.97
      11327.6      1058.82
      11339.4      1057.60
      11351.2      1056.45
      11363.0      1055.23
      11374.8      1054.05
      11386.6      1052.81
      11398.4      1051.68
      11410.2      1050.54
      11422.0      1049.32
      11433.9      1048.20
      11445.7      1047.07
      11457.5      1045.85
      11469.3      1044.78
      11481.1      1043.59
      11492.9      1042.44
      11504.7      1041.26
      11516.5      1040.09
      11528.3      1038.97
      11540.2      1037.76
      11552.0      1036.68
      11563.8      1035.49
      11575.6      1034.38
      11587.4      1033.14
      11599.2      1032.07
      11611.0      1030.93
      11622.8      1029.84
      11634.6      1028.73
      11646.4      1027.60
      11658.3      1026.53
      11670.1      1025.47
      11681.9      1024.31
      11693.7      1023.25
      11705.5      1022.11
      11717.3      1021.02
      11729.1      1019.94
      11740.9      1018.83
      11752.7      1017.70
      11764.5      1016.66
      11776.4      1015.52
      11788.2      1014.44
      11800.0      1013.34
      11811.8      1012.31
      11823.6      1011.26
      11835.4      1010.27
      11847.2      1009.24
      11859.0      1008.23
      11870.8      1007.23
      11882.6      1006.15
      11894.5      1005.20
      11906.3      1004.06
      11918.1      1003.15
      11929.9      1002.09
      11941.7      1001.07
      11953.5      1000.05
      11965.3      999.019
      11977.1      998.025
      11988.9      996.984
      12000.7      996.021
      12012.6      994.986
      12024.4      994.170
      12036.2      993.213
      12048.0      992.264
      12059.8      991.288
      12071.6      990.438
      12083.4      989.512
      12095.2      988.576
      12107.0      987.621
      12118.9      986.752
      12130.7      985.845
      12142.5      984.856
      12154.3      983.903
      12166.1      983.054
      12177.9      982.068
      12189.7      981.224
      12201.5      980.265
      12213.3      979.444
      12225.1      978.661
      12237.0      977.855
      12248.8      977.078
      12260.6      976.163
      12272.4      975.445
      12284.2      974.641
      12296.0      973.762
      12307.8      973.062
      12319.6      972.153
      12331.4      971.382
      12343.2      970.539
      12355.1      969.770
      12366.9      968.969
      12378.7      968.184
      12390.5      967.368
      12402.3      966.543
      12414.1      965.919
      12425.9      965.255
      12437.7      964.576
      12449.5      963.883
      12461.3      963.235
      12473.2      962.632
      12485.0      961.888
      12496.8      961.243
      12508.6      960.569
      12520.4      959.919
      12532.2      959.260
      12544.0      958.623
      12555.8      957.951
      12567.6      957.245
      12579.5      956.608
      12591.3      955.924
      12603.1      955.254
      12614.9      954.586
      12626.7      953.919
      12638.5      953.187
      12650.3      952.486
      12662.1      951.843
      12673.9      951.097
      12685.7      950.452
      12697.6      949.711
      12709.4      949.058
      12721.2      948.348
      12733.0      947.685
      12744.8      946.981
      12756.6      946.339
      12768.4      945.607
      12780.2      944.893
      12792.0      944.218
      12803.8      943.525
      12815.7      942.927
      12827.5      942.296
      12839.3      941.669
      12851.1      941.076
      12862.9      940.433
      12874.7      939.861
      12886.5      939.171
      12898.3      938.563
      12910.1      937.974
      12921.9      937.308
      12933.8      936.719
      12945.6      936.122
      12957.4      935.448
      12969.2      934.844
      12981.0      934.213
      12992.8      933.590
      13004.6      932.986
      13016.4      932.206
      13028.2      931.565
      13040.1      930.775
      13051.9      930.120
      13063.7      929.418
      13075.5      928.659
      13087.3      928.012
      13099.1      927.275
      13110.9      926.585
      13122.7      925.858
      13134.5      925.156
      13146.3      924.431
      13158.2      923.726
      13170.0      922.998
      13181.8      922.324
      13193.6      921.614
      13205.4      920.922
      13217.2      920.301
      13229.0      919.738
      13240.8      919.070
      13252.6      918.431
      13264.4      917.840
      13276.3      917.244
      13288.1      916.553
      13299.9      916.001
      13311.7      915.379
      13323.5      914.696
      13335.3      914.155
      13347.1      913.466
      13358.9      912.890
      13370.7      912.287
      13382.5      911.672
      13394.4      911.026
      13406.2      910.479
      13418.0      910.065
      13429.8      909.599
      13441.6      909.201
      13453.4      908.758
      13465.2      908.314
      13477.0      907.901
      13488.8      907.455
      13500.6      906.955
      13512.5      906.563
      13524.3      906.136
      13536.1      905.722
      13547.9      905.209
      13559.7      904.859
      13571.5      904.362
      13583.3      903.941
      13595.1      903.484
      13606.9      902.900
      13618.8      902.146
      13630.6      901.405
      13642.4      900.667
      13654.2      899.904
      13666.0      899.198
      13677.8      898.444
      13689.6      897.671
      13701.4      896.926
      13713.2      896.203
      13725.0      895.487
      13736.9      894.702
      13748.7      893.964
      13760.5      893.228
      13772.3      892.505
      13784.1      891.713
      13795.9      891.034
      13807.7      890.324
      13819.5      889.673
      13831.3      889.056
      13843.1      888.365
      13855.0      887.795
      13866.8      887.107
      13878.6      886.460
      13890.4      885.878
      13902.2      885.190
      13914.0      884.513
      13925.8      883.902
      13937.6      883.278
      13949.4      882.587
      13961.2      882.013
      13973.1      881.327
      13984.9      880.678
      13996.7      880.111
      14008.5      879.272
      14020.3      878.529
      14032.1      877.735
      14043.9      876.976
      14055.7      876.160
      14067.5      875.356
      14079.4      874.603
      14091.2      873.863
      14103.0      873.019
      14114.8      872.265
      14126.6      871.404
      14138.4      870.717
      14150.2      869.922
      14162.0      869.087
      14173.8      868.348
      14185.6      867.533
      14197.5      866.732
      14209.3      866.117
      14221.1      865.452
      14232.9      864.824
      14244.7      864.141
      14256.5      863.555
      14268.3      862.895
      14280.1      862.306
      14291.9      861.602
      14303.7      860.989
      14315.6      860.316
      14327.4      859.770
      14339.2      859.052
      14351.0      858.413
      14362.8      857.837
      14374.6      857.154
      14386.4      856.523
      14398.2      855.887
      14410.0      855.260
      14421.8      854.592
      14433.7      854.028
      14445.5      853.351
      14457.3      852.695
      14469.1      852.116
      14480.9      851.474
      14492.7      850.786
      14504.5      850.222
      14516.3      849.523
      14528.1      848.930
      14540.0      848.317
      14551.8      847.629
      14563.6      847.065
      14575.4      846.398
      14587.2      845.766
      14599.0      845.138
      14610.8      844.484
      14622.6      843.759
      14634.4      843.122
      14646.2      842.479
      14658.1      841.791
      14669.9      841.088
      14681.7      840.511
      14693.5      839.756
      14705.3      839.125
      14717.1      838.429
      14728.9      837.780
      14740.7      837.094
      14752.5      836.457
      14764.3      835.781
      14776.2      835.073
      14788.0      834.444
      14799.8      833.819
      14811.6      833.710
      14823.4      833.585
      14835.2      833.604
      14847.0      833.429
      14858.8      833.446
      14870.6      833.331
      14882.4      833.285
      14894.3      833.279
      14906.1      833.113
      14917.9      833.102
      14929.7      833.010
      14941.5      832.940
      14953.3      832.942
      14965.1      832.802
      14976.9      832.758
      14988.7      832.703
      15000.5      832.663
      15012.4      832.491
      15024.2      832.519
      15036.0      832.351
      15047.8      832.256
      15059.6      832.258
      15071.4      832.146
      15083.2      832.023
      15095.0      831.927
      15106.8      831.895
      15118.7      831.776
      15130.5      831.724
      15142.3      831.590
      15154.1      831.574
      15165.9      831.491
      15177.7      831.373
      15189.5      831.281
      15201.3      831.182
      15213.1      830.898
      15224.9      830.723
      15236.8      830.503
      15248.6      830.212
      15260.4      829.989
      15272.2      829.750
      15284.0      829.542
      15295.8      829.273
      15307.6      829.049
      15319.4      828.769
      15331.2      828.558
      15343.0      828.304
      15354.9      828.097
      15366.7      827.821
      15378.5      827.645
      15390.3      827.335
      15402.1      827.169
      15413.9      826.964
      15425.7      826.789
      15437.5      826.605
      15449.3      826.446
      15461.1      826.308
      15473.0      826.082
      15484.8      825.935
      15496.6      825.790
      15508.4      825.586
      15520.2      825.431
      15532.0      825.242
      15543.8      825.076
      15555.6      824.904
      15567.4      824.722
      15579.3      824.570
      15591.1      824.388
      15602.9      824.235
      15614.7      824.057
      15626.5      823.970
      15638.3      823.776
      15650.1      823.671
      15661.9      823.492
      15673.7      823.367
      15685.5      823.225
      15697.4      823.095
      15709.2      822.943
      15721.0      822.774
      15732.8      822.679
      15744.6      822.490
      15756.4      822.367
      15768.2      822.195
      15780.0      822.112
      15791.8      821.974
      15803.6      821.746
      15815.5      821.536
      15827.3      821.280
      15839.1      821.052
      15850.9      820.804
      15862.7      820.643
      15874.5      820.342
      15886.3      820.099
      15898.1      819.891
      15909.9      819.651
      15921.8      819.410
      15933.6      819.187
      15945.4      818.945
      15957.2      818.725
      15969.0      818.475
      15980.8      818.210
      15992.6      818.058
      16004.4      817.676
      16016.2      817.327
      16028.0      816.902
      16039.8      816.534
      16051.7      816.070
      16063.5      815.750
      16075.3      815.308
      16087.1      814.891
      16098.9      814.530
      16110.7      814.099
      16122.5      813.685
      16134.3      813.335
      16146.1      812.938
      16158.0      812.529
      16169.8      812.084
      16181.6      811.718
      16193.4      811.329
      16205.2      810.796
      16217.0      810.049
      16228.8      809.423
      16240.6      808.738
      16252.4      808.038
      16264.2      807.356
      16276.1      806.625
      16287.9      805.975
      16299.7      805.249
      16311.5      804.606
      16323.3      803.896
      16335.1      803.222
      16346.9      802.484
      16358.7      801.828
      16370.5      801.141
      16382.3      800.398
      16394.2      799.790
      16406.0      798.766
      16417.8      797.641
      16429.6      796.387
      16441.4      795.063
      16453.2      793.998
      16465.0      792.720
      16476.8      791.546
      16488.6      790.287
      16500.5      789.081
      16512.3      787.917
      16524.1      786.686
      16535.9      785.466
      16547.7      784.226
      16559.5      783.062
      16571.3      781.864
      16583.1      780.552
      16594.9      779.378
      16606.7      778.370
      16618.6      777.429
      16630.4      776.471
      16642.2      775.549
      16654.0      774.658
      16665.8      773.747
      16677.6      772.747
      16689.4      771.771
      16701.2      770.920
      16713.0      770.004
      16724.8      768.995
      16736.7      768.199
      16748.5      767.171
      16760.3      766.216
      16772.1      765.355
      16783.9      764.382
      16795.7      763.443
      16807.5      762.554
      16819.3      761.574
      16831.1      760.761
      16842.9      759.778
      16854.8      758.905
      16866.6      757.990
      16878.4      756.961
      16890.2      756.129
      16902.0      755.235
      16913.8      754.320
      16925.6      753.327
      16937.4      752.454
      16949.2      751.576
      16961.1      750.571
      16972.9      749.699
      16984.7      748.741
      16996.5      747.841
      17008.3      746.948
      17020.1      745.888
      17031.9      744.899
      17043.7      743.887
      17055.5      742.897
      17067.3      741.897
      17079.2      740.876
      17091.0      739.855
      17102.8      738.942
      17114.6      737.843
      17126.4      736.913
      17138.2      735.855
      17150.0      734.840
      17161.8      733.895
      17173.6      732.918
      17185.4      731.894
      17197.3      730.902
      17209.1      729.951
      17220.9      729.031
      17232.7      728.151
      17244.5      727.167
      17256.3      726.402
      17268.1      725.326
      17279.9      724.561
      17291.7      723.563
      17303.5      722.690
      17315.4      721.775
      17327.2      720.814
      17339.0      720.009
      17350.8      719.010
      17362.6      718.147
      17374.4      717.297
      17386.2      716.284
      17398.0      715.389
      17409.8      714.311
      17421.6      713.171
      17433.5      712.130
      17445.3      710.987
      17457.1      709.766
      17468.9      708.707
      17480.7      707.602
      17492.5      706.495
      17504.3      705.352
      17516.1      704.164
      17527.9      703.137
      17539.7      701.999
      17551.6      700.771
      17563.4      699.734
      17575.2      698.634
      17587.0      697.515
      17598.8      696.323
      17610.6      695.293
      17622.4      694.188
      17634.2      693.210
      17646.0      692.150
      17657.9      691.060
      17669.7      689.999
      17681.5      688.960
      17693.3      687.942
      17705.1      686.853
      17716.9      685.848
      17728.7      684.687
      17740.5      683.722
      17752.3      682.619
      17764.1      681.558
      17776.0      680.479
      17787.8      679.482
      17799.6      678.442
      17811.4      677.336
      17823.2      676.255
      17835.0      675.153
      17846.8      674.023
      17858.6      672.975
      17870.4      671.864
      17882.2      670.865
      17894.1      669.637
      17905.9      668.681
      17917.7      667.509
      17929.5      666.457
      17941.3      665.362
      17953.1      664.283
      17964.9      663.192
      17976.7      662.115
      17988.5      661.017
      18000.4      659.896
      18012.2      659.032
      18024.0      658.068
      18035.8      657.114
      18047.6      656.145
      18059.4      655.338
      18071.2      654.335
      18083.0      653.312
      18094.8      652.489
      18106.6      651.538
      18118.5      650.535
      18130.3      649.604
      18142.1      648.744
      18153.9      647.739
      18165.7      646.869
      18177.5      645.904
      18189.3      644.947
      18201.1      644.050
      18212.9      643.330
      18224.7      642.459
      18236.6      641.707
      18248.4      640.976
      18260.2      640.160
      18272.0      639.365
      18283.8      638.628
      18295.6      637.884
      18307.4      637.037
      18319.2      636.269
      18331.0      635.549
      18342.8      634.762
      18354.7      633.900
      18366.5      633.257
      18378.3      632.377
      18390.1      631.679
      18401.9      630.769
      18413.7      629.964
      18425.5      628.931
      18437.3      628.061
      18449.1      627.036
      18460.9      626.193
      18472.8      625.223
      18484.6      624.223
      18496.4      623.353
      18508.2      622.455
      18520.0      621.502
      18531.8      620.478
      18543.6      619.586
      18555.4      618.726
      18567.2      617.743
      18579.1      616.720
      18590.9      615.870
      18602.7      614.895
      18614.5      613.997
      18626.3      613.109
      18638.1      612.192
      18649.9      611.296
      18661.7      610.292
      18673.5      609.434
      18685.3      608.540
      18697.2      607.605
      18709.0      606.668
      18720.8      605.829
      18732.6      604.851
      18744.4      603.911
      18756.2      603.011
      18768.0      602.185
      18779.8      601.178
      18791.6      600.270
      18803.4      599.426
      18815.3      598.656
      18827.1      597.935
      18838.9      597.179
      18850.7      596.467
      18862.5      595.709
      18874.3      594.935
      18886.1      594.270
      18897.9      593.480
      18909.7      592.666
      18921.5      592.036
      18933.4      591.240
      18945.2      590.445
      18957.0      589.787
      18968.8      589.028
      18980.6      588.246
      18992.4      587.535
      19004.2      586.752
      19016.0      585.983
      19027.8      585.258
      19039.7      584.510
      19051.5      583.697
      19063.3      582.959
      19075.1      582.108
      19086.9      581.409
      19098.7      580.670
      19110.5      579.893
      19122.3      579.122
      19134.1      578.337
      19145.9      577.626
      19157.8      576.821
      19169.6      576.024
      19181.4      575.255
      19193.2      574.559
      19205.0      573.663
      19216.8      572.660
      19228.6      571.680
      19240.4      570.717
      19252.2      569.731
      19264.0      568.679
      19275.9      567.772
      19287.7      566.697
      19299.5      565.754
      19311.3      564.748
      19323.1      563.802
      19334.9      562.792
      19346.7      561.775
      19358.5      560.760
      19370.3      559.851
      19382.1      558.823
      19394.0      557.801
      19405.8      556.912
      19417.6      556.018
      19429.4      555.186
      19441.2      554.252
      19453.0      553.397
      19464.8      552.548
      19476.6      551.687
      19488.4      550.801
      19500.2      549.879
      19512.1      548.998
      19523.9      548.159
      19535.7      547.316
      19547.5      546.441
      19559.3      545.505
      19571.1      544.664
      19582.9      543.784
      19594.7      542.948
      19606.5      542.059
      19618.4      541.195
      19630.2      540.327
      19642.0      539.563
      19653.8      538.734
      19665.6      537.814
      19677.4      537.031
      19689.2      536.212
      19701.0      535.270
      19712.8      534.534
      19724.6      533.597
      19736.5      532.865
      19748.3      531.960
      19760.1      531.141
      19771.9      530.244
      19783.7      529.508
      19795.5      528.565
      19807.3      527.791
      19819.1      526.948
      19830.9      526.240
      19842.7      525.335
      19854.6      524.564
      19866.4      523.734
      19878.2      522.996
      19890.0      522.099
      19901.8      521.367
      19913.6      520.514
      19925.4      519.743
      19937.2      518.935
      19949.0      518.137
      19960.8      517.292
      19972.7      516.538
      19984.5      515.669
      19996.3      514.926
      20008.1      514.025
      20019.9      513.169
      20031.7      512.249
      20043.5      511.341
      20055.3      510.533
      20067.1      509.554
      20079.0      508.737
      20090.8      507.813
      20102.6      506.904
      20114.4      506.057
      20126.2      505.179
      20138.0      504.243
      20149.8      503.420
      20161.6      502.485
      20173.4      501.652
      20185.2      500.671
      20197.1      499.832
      20208.9      499.107
      20220.7      498.311
      20232.5      497.584
      20244.3      496.759
      20256.1      496.090
      20267.9      495.391
      20279.7      494.563
      20291.5      493.817
      20303.3      493.166
      20315.2      492.281
      20327.0      491.676
      20338.8      490.852
      20350.6      490.123
      20362.4      489.371
      20374.2      488.622
      20386.0      487.921
      20397.8      487.115
      20409.6      486.501
      20421.5      485.946
      20433.3      485.356
      20445.1      484.683
      20456.9      484.162
      20468.7      483.494
      20480.5      482.937
      20492.3      482.327
      20504.1      481.708
      20515.9      481.161
      20527.7      480.523
      20539.6      479.943
      20551.4      479.296
      20563.2      478.751
      20575.0      478.129
      20586.8      477.513
      20598.6      476.952
      20610.4      476.235
      20622.2      475.639
      20634.0      474.878
      20645.8      474.255
      20657.7      473.592
      20669.5      472.830
      20681.3      472.205
      20693.1      471.532
      20704.9      470.855
      20716.7      470.195
      20728.5      469.463
      20740.3      468.879
      20752.1      468.134
      20763.9      467.462
      20775.8      466.775
      20787.6      466.111
      20799.4      465.420
      20811.2      464.748
      20823.0      464.084
      20834.8      463.315
      20846.6      462.623
      20858.4      461.983
      20870.2      461.225
      20882.0      460.615
      20893.9      459.865
      20905.7      459.188
      20917.5      458.464
      20929.3      457.771
      20941.1      457.074
      20952.9      456.448
      20964.7      455.674
      20976.5      455.003
      20988.3      454.308
      21000.2      453.637
      21012.0      453.046
      21023.8      452.551
      21035.6      452.002
      21047.4      451.437
      21059.2      450.943
      21071.0      450.376
      21082.8      449.795
      21094.6      449.299
      21106.4      448.752
      21118.3      448.189
      21130.1      447.710
      21141.9      447.086
      21153.7      446.618
      21165.5      446.022
      21177.3      445.478
      21189.1      444.984
      21200.9      444.416
      21212.7      443.841
      21224.5      443.321
      21236.4      442.756
      21248.2      442.188
      21260.0      441.653
      21271.8      441.032
      21283.6      440.551
      21295.4      439.973
      21307.2      439.346
      21319.0      438.870
      21330.8      438.296
      21342.6      437.702
      21354.5      437.163
      21366.3      436.629
      21378.1      436.027
      21389.9      435.470
      21401.7      434.963
      21413.5      434.356
      21425.3      433.812
      21437.1      433.204
      21448.9      432.654
      21460.8      432.047
      21472.6      431.512
      21484.4      430.923
      21496.2      430.415
      21508.0      429.767
      21519.8      429.226
      21531.6      428.653
      21543.4      428.062
      21555.2      427.566
      21567.0      426.929
      21578.9      426.327
      21590.7      425.803
      21602.5      425.255
      21614.3      424.628
      21626.1      424.070
      21637.9      423.453
      21649.7      422.913
      21661.5      422.234
      21673.3      421.743
      21685.1      421.101
      21697.0      420.564
      21708.8      419.954
      21720.6      419.368
      21732.4      418.794
      21744.2      418.186
      21756.0      417.637
      21767.8      416.988
      21779.6      416.471
      21791.4      415.853
      21803.2      415.253
      21815.1      414.663
      21826.9      414.026
      21838.7      413.466
      21850.5      412.876
      21862.3      412.227
      21874.1      411.650
      21885.9      411.011
      21897.7      410.439
      21909.5      409.845
      21921.3      409.247
      21933.2      408.617
      21945.0      408.054
      21956.8      407.419
      21968.6      406.814
      21980.4      406.248
      21992.2      405.563
      22004.0      405.006
      22015.8      404.403
      22027.6      403.784
      22039.5      403.140
      22051.3      402.562
      22063.1      401.928
      22074.9      401.316
      22086.7      400.660
      22098.5      400.078
      22110.3      399.474
      22122.1      398.797
      22133.9      398.242
      22145.7      397.634
      22157.6      396.954
      22169.4      396.384
      22181.2      395.754
      22193.0      395.105
      22204.8      394.564
      22216.6      393.986
      22228.4      393.386
      22240.2      392.868
      22252.0      392.279
      22263.8      391.714
      22275.7      391.142
      22287.5      390.565
      22299.3      390.020
      22311.1      389.462
      22322.9      388.874
      22334.7      388.345
      22346.5      387.726
      22358.3      387.198
      22370.1      386.641
      22382.0      386.064
      22393.8      385.528
      22405.6      384.939
      22417.4      384.450
      22429.2      383.971
      22441.0      383.502
      22452.8      383.002
      22464.6      382.462
      22476.4      381.990
      22488.2      381.516
      22500.0      380.985
      22511.9      380.472
      22523.7      380.018
      22535.5      379.521
      22547.3      379.040
      22559.1      378.486
      22570.9      378.022
      22582.7      377.507
      22594.5      377.046
      22606.3      376.461
      22618.2      375.822
      22630.0      375.233
      22641.8      374.589
      22653.6      373.933
      22665.4      373.307
      22677.2      372.717
      22689.0      372.093
      22700.8      371.417
      22712.6      370.793
      22724.4      370.212
      22736.3      369.563
      22748.1      368.925
      22759.9      368.337
      22771.7      367.625
      22783.5      367.069
      22795.3      366.432
      22807.1      365.698
      22818.9      364.866
      22830.7      364.149
      22842.5      363.297
      22854.4      362.534
      22866.2      361.703
      22878.0      360.958
      22889.8      360.165
      22901.6      359.327
      22913.4      358.561
      22925.2      357.803
      22937.0      356.987
      22948.8      356.170
      22960.6      355.389
      22972.5      354.596
      22984.3      353.803
      22996.1      352.998
      23007.9      352.210
      23019.7      351.469
      23031.5      350.677
      23043.3      349.901
      23055.1      349.124
      23066.9      348.348
      23078.8      347.572
      23090.6      346.781
      23102.4      346.048
      23114.2      345.231
      23126.0      344.439
      23137.8      343.736
      23149.6      342.904
      23161.4      342.120
      23173.2      341.363
      23185.0      340.603
      23196.9      339.803
      23208.7      339.154
      23220.5      338.472
      23232.3      337.890
      23244.1      337.208
      23255.9      336.605
      23267.7      335.959
      23279.5      335.303
      23291.3      334.685
      23303.1      334.012
      23315.0      333.412
      23326.8      332.751
      23338.6      332.121
      23350.4      331.514
      23362.2      330.868
      23374.0      330.178
      23385.8      329.600
      23397.6      328.934
      23409.4      328.257
      23421.3      327.516
      23433.1      326.772
      23444.9      326.094
      23456.7      325.339
      23468.5      324.655
      23480.3      323.896
      23492.1      323.163
      23503.9      322.479
      23515.7      321.763
      23527.5      321.057
      23539.4      320.268
      23551.2      319.632
      23563.0      318.869
      23574.8      318.149
      23586.6      317.428
      23598.4      316.692
      23610.2      316.099
      23622.0      315.463
      23633.8      314.829
      23645.6      314.218
      23657.5      313.637
      23669.3      312.985
      23681.1      312.361
      23692.9      311.798
      23704.7      311.126
      23716.5      310.553
      23728.3      309.896
      23740.1      309.289
      23751.9      308.672
      23763.7      308.061
      23775.6      307.444
      23787.4      306.838
      23799.2      306.242
      23811.0      305.679
      23822.8      305.247
      23834.6      304.740
      23846.4      304.285
      23858.2      303.770
      23870.0      303.272
      23881.8      302.809
      23893.7      302.357
      23905.5      301.813
      23917.3      301.368
      23929.1      300.829
      23940.9      300.413
      23952.7      299.878
      23964.5      299.398
      23976.3      298.922
      23988.1      298.441
      24000.0      297.984
      24011.8      297.540
      24023.6      297.123
      24035.4      296.735
      24047.2      296.366
      24059.0      295.924
      24070.8      295.498
      24082.6      295.124
      24094.4      294.712
      24106.2      294.285
      24118.1      293.871
      24129.9      293.489
      24141.7      293.115
      24153.5      292.659
      24165.3      292.284
      24177.1      291.864
      24188.9      291.478
      24200.7      291.054
      24212.5      290.745
      24224.3      290.415
      24236.2      290.122
      24248.0      289.823
      24259.8      289.485
      24271.6      289.187
      24283.4      288.818
      24295.2      288.577
      24307.0      288.211
      24318.8      287.912
      24330.6      287.595
      24342.4      287.291
      24354.3      286.957
      24366.1      286.679
      24377.9      286.307
      24389.7      286.065
      24401.5      285.706
      24413.3      285.460
      24425.1      285.158
      24436.9      284.896
      24448.7      284.635
      24460.5      284.382
      24472.4      284.087
      24484.2      283.785
      24496.0      283.592
      24507.8      283.239
      24519.6      283.023
      24531.4      282.737
      24543.2      282.463
      24555.0      282.185
      24566.8      281.932
      24578.7      281.637
      24590.5      281.378
      24602.3      281.112
      24614.1      280.938
      24625.9      280.783
      24637.7      280.537
      24649.5      280.390
      24661.3      280.169
      24673.1      279.991
      24684.9      279.838
      24696.8      279.630
      24708.6      279.425
      24720.4      279.256
      24732.2      279.085
      24744.0      278.860
      24755.8      278.742
      24767.6      278.495
      24779.4      278.324
      24791.2      278.119
      24803.0      277.904
      24814.9      277.685
      24826.7      277.384
      24838.5      277.092
      24850.3      276.832
      24862.1      276.574
      24873.9      276.251
      24885.7      276.029
      24897.5      275.742
      24909.3      275.465
      24921.1      275.202
      24933.0      274.915
      24944.8      274.616
      24956.6      274.388
      24968.4      274.099
      24980.2      273.814
      24992.0      273.520
      25003.8      273.268
      25015.6      272.854
      25027.4      272.477
      25039.3      272.099
      25051.1      271.690
      25062.9      271.373
      25074.7      270.954
      25086.5      270.584
      25098.3      270.209
      25110.1      269.825
      25121.9      269.443
      25133.7      269.081
      25145.5      268.663
      25157.4      268.328
      25169.2      267.908
      25181.0      267.582
      25192.8      267.140
      25204.6      266.863
      25216.4      266.592
      25228.2      266.357
      25240.0      266.077
      25251.8      265.841
      25263.6      265.592
      25275.5      265.362
      25287.3      265.082
      25299.1      264.833
      25310.9      264.584
      25322.7      264.337
      25334.5      264.094
      25346.3      263.829
      25358.1      263.608
      25369.9      263.334
      25381.8      263.088
      25393.6      262.824
      25405.4      262.609
      25417.2      262.405
      25429.0      262.189
      25440.8      261.968
      25452.6      261.723
      25464.4      261.561
      25476.2      261.328
      25488.0      261.100
      25499.9      260.929
      25511.7      260.655
      25523.5      260.491
      25535.3      260.260
      25547.1      260.067
      25558.9      259.817
      25570.7      259.641
      25582.5      259.393
      25594.3      259.228
