# spectrum  Type     U-V    B-V    V-R    V-I    V-J    V-K
# ---------------------------------------------------------
#  bpgs_1  O5      -1.42  -0.34  -0.14  -0.29  -0.76  -0.93
#
# lambda (Angstroms)  flux (phot/lambda)
#----------------------------------------------------------
PHOTLAM
      512.023      23264.6
      524.570      23642.3
      537.117      23433.5
      549.664      24103.7
      562.212      25057.6
      574.759      25409.9
      587.306      25607.8
      599.853      25898.0
      612.401      26132.2
      624.948      26011.8
      637.495      25864.6
      650.042      26125.0
      662.590      26525.4
      675.137      26714.0
      687.684      26506.8
      700.231      26294.3
      712.779      26500.1
      725.326      26971.7
      737.873      27209.7
      750.420      26641.1
      762.968      26004.2
      775.515      25735.4
      788.062      25930.6
      800.609      26127.7
      813.157      26156.6
      825.704      25776.9
      838.251      25379.1
      850.798      25052.0
      863.346      25057.0
      875.893      25104.3
      888.440      25217.4
      900.987      26014.8
      913.535      26993.8
      926.082      31205.6
      938.629      38595.3
      951.177      43527.3
      963.724      46999.3
      976.271      47447.8
      988.818      47403.8
      1001.37      46588.0
      1013.91      45682.4
      1026.46      44698.5
      1039.01      43810.9
      1051.55      43264.4
      1064.10      42739.0
      1076.65      42191.4
      1089.20      41567.5
      1101.74      40709.7
      1114.29      40353.8
      1126.84      40382.2
      1139.39      39537.8
      1151.93      38998.4
      1164.48      38243.2
      1177.03      37014.3
      1189.57      35688.1
      1202.12      34513.8
      1214.67      33943.5
      1227.22      33555.8
      1239.76      33216.6
      1252.31      32535.9
      1264.86      31860.1
      1277.41      31273.6
      1289.95      30469.4
      1302.50      29588.3
      1315.05      28709.3
      1327.59      27933.1
      1340.14      27229.7
      1352.69      26547.9
      1365.24      25991.5
      1377.78      25600.8
      1390.33      25213.1
      1402.88      24822.5
      1415.42      24425.0
      1427.97      24096.7
      1440.52      23841.1
      1453.07      23740.1
      1465.61      23664.3
      1478.16      23577.6
      1490.71      23315.4
      1503.26      22901.8
      1515.80      22244.4
      1528.35      21259.5
      1540.90      20085.1
      1553.44      18838.3
      1565.99      18673.6
      1578.54      19613.9
      1591.09      19688.9
      1603.63      19502.5
      1616.18      19236.1
      1628.73      18975.0
      1641.28      18720.2
      1653.82      18476.7
      1666.37      18217.9
      1678.92      17942.1
      1691.46      17657.1
      1704.01      17397.2
      1716.56      17193.2
      1729.11      17060.1
      1741.65      16924.7
      1754.20      16668.6
      1766.75      16494.9
      1779.30      16384.5
      1791.84      16140.0
      1804.39      15855.5
      1816.94      15556.7
      1829.48      15419.1
      1842.03      15297.9
      1854.58      15017.1
      1867.13      14779.8
      1879.67      14586.4
      1892.22      14395.4
      1904.77      14201.0
      1917.32      14006.1
      1929.86      13902.5
      1942.41      13807.2
      1954.96      13637.1
      1967.50      13439.7
      1980.05      13231.0
      1992.60      13046.0
      2005.15      12871.4
      2017.69      12703.9
      2030.24      12533.0
      2042.79      12399.6
      2055.33      12371.3
      2067.88      12246.4
      2080.43      12058.1
      2092.98      11882.5
      2105.52      11724.1
      2118.07      11585.9
      2130.62      11451.7
      2143.17      11315.4
      2155.71      11173.5
      2168.26      11025.8
      2180.81      10876.4
      2193.35      10733.9
      2205.90      10599.8
      2218.45      10474.3
      2231.00      10354.4
      2243.54      10221.3
      2256.09      10056.7
      2268.64      9907.30
      2281.19      9766.45
      2293.73      9629.24
      2306.28      9504.38
      2318.83      9393.22
      2331.37      9302.75
      2343.92      9205.76
      2356.47      9084.46
      2369.02      8922.18
      2381.56      8756.44
      2394.11      8649.15
      2406.66      8560.59
      2419.20      8479.65
      2431.75      8375.63
      2444.30      8272.58
      2456.85      8178.32
      2469.39      8018.44
      2481.94      7846.98
      2494.49      7729.45
      2507.04      7644.71
      2519.58      7587.17
      2532.13      7559.55
      2544.68      7513.87
      2557.22      7429.55
      2569.77      7335.73
      2582.32      7240.29
      2594.87      7152.40
      2607.41      7069.36
      2619.96      6989.15
      2632.51      6909.87
      2645.06      6831.09
      2657.60      6752.69
      2670.15      6665.45
      2682.70      6580.40
      2695.24      6508.60
      2707.79      6434.22
      2720.34      6355.02
      2732.89      6263.23
      2745.43      6191.42
      2757.98      6146.32
      2770.53      6079.11
      2783.07      6006.77
      2795.62      5939.00
      2808.17      5873.39
      2820.72      5808.18
      2833.26      5741.52
      2845.81      5677.96
      2858.36      5617.67
      2870.91      5558.61
      2883.45      5499.56
      2896.00      5441.25
      2908.55      5381.77
      2921.09      5321.33
      2933.64      5259.45
      2946.19      5200.46
      2958.74      5144.24
      2971.28      5085.04
      2983.83      5024.99
      2996.38      4965.32
      3008.93      4909.27
      3021.47      4856.24
      3034.02      4809.41
      3046.57      4765.90
      3059.11      4724.19
      3071.66      4675.79
      3084.21      4625.66
      3096.76      4575.21
      3109.30      4525.41
      3121.85      4476.11
      3134.40      4428.34
      3146.95      4385.96
      3159.49      4347.25
      3172.04      4305.78
      3184.59      4257.83
      3197.13      4200.80
      3209.68      4151.27
      3222.23      4110.06
      3234.78      4086.91
      3247.32      4166.32
      3259.87      4270.66
      3272.42      4119.23
      3284.97      4014.16
      3297.51      3889.79
      3310.06      3787.05
      3322.61      3838.50
      3335.15      3773.75
      3347.70      3759.83
      3360.25      3694.65
      3372.80      3636.28
      3385.34      3565.67
      3397.89      3530.35
      3410.44      3487.72
      3422.98      3514.73
      3435.53      3505.43
      3448.08      3508.78
      3460.63      3472.59
      3473.17      3358.44
      3485.72      3311.21
      3498.27      3359.52
      3510.82      3297.89
      3523.36      3277.16
      3535.91      3223.06
      3548.46      3200.47
      3561.00      3147.39
      3573.55      3091.88
      3586.10      3032.06
      3598.65      3052.46
      3611.19      3017.26
      3623.74      2991.93
      3636.29      2955.19
      3648.84      2957.91
      3661.38      2952.03
      3673.93      2874.74
      3686.48      2809.25
      3699.02      2781.18
      3711.57      2770.01
      3724.12      2751.51
      3736.67      2699.28
      3749.21      2696.52
      3761.76      2681.78
      3774.31      2712.14
      3786.86      2709.52
      3799.40      2687.47
      3811.95      2793.62
      3824.50      2744.28
      3837.04      2614.20
      3849.59      2699.74
      3862.14      2709.76
      3874.69      2630.52
      3887.23      2485.83
      3899.78      2523.45
      3912.33      2589.75
      3924.87      2580.81
      3937.42      2586.75
      3949.97      2593.21
      3962.52      2461.53
      3975.06      2438.39
      3987.61      2550.38
      4000.16      2554.87
      4012.71      2493.84
      4025.25      2431.20
      4037.80      2435.50
      4050.35      2412.36
      4062.89      2367.74
      4075.44      2317.71
      4087.99      2262.65
      4100.54      2129.80
      4113.08      2204.48
      4125.63      2288.96
      4138.18      2322.76
      4150.73      2265.69
      4163.27      2239.15
      4175.82      2238.23
      4188.37      2186.06
      4200.91      2147.54
      4213.46      2166.30
      4226.01      2172.61
      4238.56      2171.77
      4251.10      2173.70
      4263.65      2170.85
      4276.20      2149.78
      4288.74      2147.04
      4301.29      2138.21
      4313.84      2072.99
      4326.39      1982.23
      4338.93      1889.95
      4351.48      1956.66
      4364.03      2012.28
      4376.58      1980.39
      4389.12      1944.85
      4401.67      1925.26
      4414.22      1900.19
      4426.76      1856.42
      4439.31      1844.52
      4451.86      1875.34
      4464.41      1866.25
      4476.95      1823.33
      4489.50      1810.34
      4502.05      1786.91
      4514.60      1787.65
      4527.14      1738.27
      4539.69      1688.88
      4552.24      1700.61
      4564.78      1751.87
      4577.33      1732.52
      4589.88      1712.80
      4602.43      1703.28
      4614.97      1720.93
      4627.52      1707.96
      4640.07      1687.29
      4652.62      1657.81
      4665.16      1635.89
      4677.71      1576.78
      4690.26      1544.32
      4702.81      1573.07
      4715.35      1564.45
      4727.90      1568.60
      4740.45      1535.74
      4752.99      1514.55
      4765.54      1511.99
      4778.09      1524.47
      4790.64      1498.98
      4803.18      1470.74
      4815.73      1464.68
      4828.28      1453.94
      4840.82      1434.05
      4853.37      1324.59
      4865.92      1277.13
      4878.47      1367.97
      4891.01      1384.28
      4903.56      1386.43
      4916.11      1385.53
      4928.66      1390.96
      4941.20      1383.05
      4953.75      1353.95
      4966.30      1336.53
      4978.84      1327.43
      4991.39      1319.50
      5003.94      1322.04
      5016.49      1312.42
      5029.03      1294.40
      5041.58      1286.33
      5054.13      1277.42
      5066.67      1261.21
      5079.22      1258.79
      5091.77      1256.51
      5104.32      1246.89
      5116.86      1238.00
      5129.41      1230.14
      5141.96      1227.91
      5154.51      1216.34
      5167.05      1196.77
      5179.60      1182.31
      5192.15      1170.89
      5204.69      1151.86
      5217.24      1144.55
      5229.79      1139.51
      5242.34      1126.65
      5254.88      1136.34
      5267.43      1126.92
      5279.98      1106.77
      5292.53      1098.59
      5305.07      1091.01
      5317.62      1086.52
      5330.17      1076.69
      5342.71      1067.64
      5355.26      1065.73
      5367.81      1050.67
      5380.36      1039.07
      5392.90      1034.29
      5405.45      1007.65
      5418.00      979.784
      5430.55      998.552
      5443.09      996.238
      5455.64      994.916
      5468.19      988.113
      5480.73      979.901
      5493.28      977.862
      5505.83      978.894
      5518.38      973.600
      5530.92      979.144
      5543.47      973.400
      5556.02      966.381
      5568.57      971.369
      5581.11      959.927
      5593.66      942.556
      5606.21      933.193
      5618.75      919.308
      5631.30      909.057
      5643.85      903.002
      5656.40      897.414
      5668.94      891.861
      5681.49      886.341
      5694.04      880.893
      5706.58      875.463
      5719.13      870.061
      5731.68      864.731
      5744.23      856.906
      5756.77      845.031
      5769.32      842.086
      5781.87      842.384
      5794.41      840.479
      5806.96      838.705
      5819.51      837.063
      5832.06      833.893
      5844.60      828.486
      5857.15      819.809
      5869.70      808.670
      5882.25      798.298
      5894.79      793.223
      5907.34      796.172
      5919.89      802.428
      5932.44      794.947
      5944.98      786.264
      5957.53      779.580
      5970.08      775.461
      5982.62      771.999
      5995.17      767.971
      6007.72      762.942
      6020.27      757.137
      6032.81      750.430
      6045.36      744.140
      6057.91      738.610
      6070.45      733.556
      6083.00      730.715
      6095.55      732.892
      6108.10      731.307
      6120.64      726.938
      6133.19      720.522
      6145.74      713.728
      6158.29      706.641
      6170.83      699.381
      6183.38      692.507
      6195.93      686.826
      6208.47      684.055
      6221.02      683.377
      6233.57      684.877
      6246.12      683.799
      6258.66      678.727
      6271.21      665.551
      6283.76      655.336
      6296.30      655.201
      6308.85      653.821
      6321.40      651.027
      6333.95      646.214
      6346.49      641.593
      6359.04      637.526
      6371.59      634.509
      6384.14      632.066
      6396.68      630.370
      6409.23      628.052
      6421.78      625.401
      6434.32      622.375
      6446.87      615.978
      6459.42      607.388
      6471.97      602.866
      6484.51      602.932
      6497.06      608.937
      6509.61      611.957
      6522.16      611.162
      6534.70      602.559
      6547.25      590.829
      6559.80      580.376
      6572.34      588.596
      6584.89      599.634
      6597.44      609.027
      6609.99      612.005
      6622.53      610.736
      6635.08      604.240
      6647.63      595.784
      6660.18      586.088
      6672.72      575.855
      6685.27      572.204
      6697.82      577.169
      6710.36      581.148
      6722.91      582.040
      6735.46      576.227
      6748.01      568.589
      6760.55      560.567
      6773.10      554.796
      6785.65      549.150
      6798.20      543.357
      6810.74      537.738
      6823.29      538.527
      6835.84      552.858
      6848.38      547.703
      6860.93      531.149
      6873.48      514.212
      6886.03      507.933
      6898.57      513.045
      6911.12      516.996
      6923.67      516.600
      6936.21      508.117
      6948.76      505.194
      6961.31      504.833
      6973.86      502.942
      6986.40      499.442
      6998.95      494.868
      7011.50      492.974
      7024.05      488.892
      7036.59      480.049
      7049.14      478.381
      7061.69      479.612
      7074.23      479.073
      7086.78      477.142
      7099.33      474.474
      7111.88      473.836
      7124.42      472.216
      7136.97      468.352
      7149.52      465.770
      7162.07      462.337
      7174.61      454.791
      7187.16      448.964
      7199.71      445.806
      7212.25      448.933
      7224.80      448.833
      7237.35      442.214
      7249.90      438.092
      7262.44      435.716
      7274.99      435.344
      7287.54      436.890
      7300.09      439.429
      7312.63      440.663
      7325.18      439.579
      7337.73      436.081
      7350.27      437.627
      7362.82      438.324
      7375.37      432.582
      7387.92      428.551
      7400.46      426.532
      7413.01      427.347
      7425.56      428.467
      7438.11      429.148
      7450.65      426.382
      7463.20      423.476
      7475.75      422.363
      7488.29      415.630
      7500.84      407.316
      7513.39      406.679
      7525.94      407.689
      7538.48      409.667
      7551.03      414.448
      7563.58      421.053
      7576.12      428.928
      7588.67      411.651
      7601.22      390.121
      7613.77      403.556
      7626.31      407.478
      7638.86      398.260
      7651.41      393.033
      7663.96      381.312
      7676.50      356.665
      7689.05      358.125
      7701.60      369.902
      7714.15      373.835
      7726.69      375.998
      7739.24      376.603
      7751.79      371.682
      7764.33      368.049
      7776.88      368.754
      7789.43      369.849
      7801.98      369.696
      7814.52      365.270
      7827.07      361.176
      7839.62      357.590
      7852.16      353.611
      7864.71      349.432
      7877.26      345.162
      7889.81      342.417
      7902.35      340.781
      7914.90      340.694
      7927.45      341.215
      7939.99      342.473
      7952.54      345.691
      7965.09      346.654
      7977.64      344.287
      7990.18      345.481
      8002.73      347.002
      8015.28      346.225
      8027.83      347.510
      8040.37      349.918
      8052.92      350.474
      8065.47      348.555
      8078.02      343.582
      8090.56      335.370
      8103.11      330.048
      8115.66      333.847
      8128.20      335.520
      8140.75      334.259
      8153.30      327.035
      8165.85      322.039
      8178.39      320.451
      8190.94      318.742
      8203.49      314.267
      8216.03      304.314
      8228.58      301.524
      8241.13      304.673
      8253.68      315.430
      8266.22      317.547
      8278.77      311.241
      8291.32      315.186
      8303.86      318.600
      8316.41      315.964
      8328.96      314.901
      8341.51      311.898
      8354.05      298.800
      8366.60      296.786
      8379.15      305.476
      8391.70      311.544
      8404.24      314.736
      8416.79      314.036
      8429.34      312.512
      8441.88      310.493
      8454.43      307.881
      8466.98      304.056
      8479.53      300.248
      8492.07      302.477
      8504.62      304.697
      8517.17      304.569
      8529.72      298.308
      8542.26      292.546
      8554.81      295.259
      8567.36      292.953
      8579.90      286.543
      8592.45      281.111
      8605.00      279.678
      8617.55      283.302
      8630.09      283.693
      8642.64      284.386
      8655.19      288.926
      8667.73      292.801
      8680.28      295.028
      8692.83      292.505
      8705.38      290.947
      8717.92      291.469
      8730.47      289.488
      8743.02      287.231
      8755.57      286.431
      8768.11      287.075
      8780.66      288.719
      8793.21      291.294
      8805.76      291.673
      8818.30      289.352
      8830.85      286.998
      8843.40      282.000
      8855.94      271.433
      8868.49      265.601
      8881.04      263.971
      8893.59      267.751
      8906.13      268.719
      8918.68      266.444
      8931.23      267.644
      8943.78      265.675
      8956.32      255.858
      8968.87      249.425
      8981.42      244.853
      8993.96      240.499
      9006.51      242.624
      9019.06      250.907
      9031.61      260.292
      9044.15      261.382
      9056.70      248.077
      9069.25      242.234
      9081.80      242.452
      9094.34      250.473
      9106.89      251.058
      9119.44      245.237
      9131.98      242.954
      9144.53      240.376
      9157.08      236.695
      9169.63      242.342
      9182.17      249.410
      9194.72      249.198
      9207.27      247.825
      9219.81      245.734
      9232.36      241.717
      9244.91      239.556
      9257.46      241.138
      9270.00      249.909
      9282.55      261.200
      9295.10      271.556
      9307.65      260.392
      9320.19      239.736
      9332.74      247.225
      9345.29      245.017
      9357.83      226.321
      9370.38      234.509
      9382.93      248.615
      9395.48      254.291
      9408.02      244.086
      9420.57      226.551
      9433.12      218.955
      9445.66      220.628
      9458.21      230.149
      9470.76      227.620
      9483.31      224.027
      9495.85      226.223
      9508.40      229.818
      9520.95      233.620
      9533.50      235.976
      9546.04      229.133
      9558.59      214.450
      9571.14      213.902
      9583.69      215.521
      9596.23      213.645
      9608.78      213.664
      9621.33      212.800
      9633.87      204.691
      9646.42      202.188
      9658.97      205.718
      9671.52      208.955
      9684.06      209.715
      9696.61      206.423
      9709.16      205.323
      9721.71      205.145
      9734.25      204.311
      9746.80      205.019
      9759.35      206.358
      9771.89      202.203
      9784.44      200.186
      9796.99      203.432
      9809.53      202.761
      9822.08      201.696
      9834.63      204.484
      9847.18      203.979
      9859.72      200.867
      9872.27      199.657
      9884.82      201.023
      9897.37      205.309
      9909.91      205.274
      9922.46      201.860
      9935.01      194.123
      9947.55      192.635
      9960.10      195.386
      9972.65      195.897
      9985.20      193.400
      9997.74      188.011
      10010.3      188.383
      10022.8      185.833
      10035.4      171.471
      10047.9      164.399
      10060.5      165.434
      10073.0      179.127
      10085.6      181.351
      10098.1      168.440
      10110.7      168.277
      10123.2      170.537
      10135.8      169.139
      10148.3      171.235
      10160.9      174.055
      10173.4      170.738
      10186.0      170.547
      10198.5      174.379
      10211.0      175.634
      10223.6      177.153
      10236.1      180.591
      10248.7      180.849
      10261.2      178.489
      10273.8      172.730
      10286.3      169.598
      10298.9      169.186
      10311.4      166.590
      10324.0      165.266
      10336.5      167.149
      10349.1      167.936
      10361.6      165.727
      10374.2      155.716
      10386.7      153.178
      10399.3      158.067
      10411.8      161.831
      10424.4      162.051
      10436.9      157.417
      10449.4      159.940
      10462.0      162.007
      10474.5      153.007
      10487.1      150.240
      10499.6      153.233
      10512.2      155.580
      10524.7      155.828
      10537.3      153.396
      10549.8      153.238
      10562.4      153.272
      10574.9      151.313
      10587.5      150.510
      10600.0      150.621
      10612.6      150.184
      10625.1      149.642
      10637.7      149.122
      10650.2      148.590
      10662.7      148.046
      10675.3      147.523
      10687.8      146.978
      10700.4      146.454
      10712.9      145.907
      10725.5      145.392
      10738.0      144.843
      10750.6      144.310
      10763.1      143.781
      10775.7      143.249
      10788.2      142.723
      10800.8      142.181
      10813.3      141.696
      10825.9      141.193
      10838.4      140.702
      10851.0      140.208
      10863.5      139.720
      10876.1      139.218
      10888.6      138.733
      10901.1      138.238
      10913.7      137.750
      10926.2      137.249
      10938.8      136.761
      10951.3      136.259
      10963.9      135.771
      10976.4      135.277
      10989.0      134.785
      11001.5      134.304
      11014.1      133.836
      11026.6      133.389
      11039.2      132.933
      11051.7      132.469
      11064.3      132.028
      11076.8      131.561
      11089.4      131.113
      11101.9      130.661
      11114.4      130.196
      11127.0      129.750
      11139.5      129.288
      11152.1      128.840
      11164.6      128.384
      11177.2      127.921
      11189.7      127.477
      11202.3      127.030
      11214.8      126.599
      11227.4      126.185
      11239.9      125.762
      11252.5      125.342
      11265.0      124.928
      11277.6      124.507
      11290.1      124.075
      11302.7      123.668
      11315.2      123.243
      11327.8      122.823
      11340.3      122.399
      11352.8      121.987
      11365.4      121.566
      11377.9      121.142
      11390.5      120.722
      11403.0      120.310
      11415.6      119.920
      11428.1      119.543
      11440.7      119.147
      11453.2      118.763
      11465.8      118.373
      11478.3      117.981
      11490.9      117.598
      11503.4      117.208
      11516.0      116.829
      11528.5      116.431
      11541.1      116.050
      11553.6      115.654
      11566.1      115.276
      11578.7      114.886
      11591.2      114.495
      11603.8      114.125
      11616.3      113.759
      11628.9      113.400
      11641.4      113.051
      11654.0      112.687
      11666.5      112.337
      11679.1      111.975
      11691.6      111.617
      11704.2      111.257
      11716.7      110.898
      11729.3      110.545
      11741.8      110.190
      11754.4      109.829
      11766.9      109.473
      11779.5      109.114
      11792.0      108.762
      11804.5      108.408
      11817.1      108.089
      11829.6      107.750
      11842.2      107.424
      11854.7      107.090
      11867.3      106.769
      11879.8      106.440
      11892.4      106.104
      11904.9      105.779
      11917.5      105.447
      11930.0      105.120
      11942.6      104.794
      11955.1      104.461
      11967.7      104.134
      11980.2      103.802
      11992.8      103.474
      12005.3      103.153
      12017.9      102.860
      12030.4      102.547
      12042.9      102.247
      12055.5      101.942
      12068.0      101.643
      12080.6      101.337
      12093.1      101.033
      12105.7      100.730
      12118.2      100.423
      12130.8      100.126
      12143.3      99.8203
      12155.9      99.5141
      12168.4      99.2185
      12181.0      98.9073
      12193.5      98.6117
      12206.1      98.3131
      12218.6      98.0338
      12231.2      97.7580
      12243.7      97.4806
      12256.2      97.2014
      12268.8      96.9216
      12281.3      96.6422
      12293.9      96.3646
      12306.4      96.0842
      12319.0      95.8084
      12331.5      95.5262
      12344.1      95.2494
      12356.6      94.9684
      12369.2      94.6941
      12381.7      94.4120
      12394.3      94.1314
      12406.8      93.8670
      12419.4      93.5981
      12431.9      93.3329
      12444.5      93.0722
      12457.0      92.8077
      12469.6      92.5439
      12482.1      92.2815
      12494.6      92.0151
      12507.2      91.7509
      12519.7      91.4900
      12532.3      91.2275
      12544.8      90.9585
      12557.4      90.6958
      12569.9      90.4343
      12582.5      90.1690
      12595.0      89.9124
      12607.6      89.6505
      12620.1      89.4219
      12632.7      89.1717
      12645.2      88.9336
      12657.8      88.6995
      12670.3      88.4532
      12682.9      88.2093
      12695.4      87.9765
      12708.0      87.7331
      12720.5      87.4894
      12733.0      87.2532
      12745.6      87.0149
      12758.1      86.7731
      12770.7      86.5272
      12783.2      86.2928
      12795.8      86.0505
      12808.3      85.8216
      12820.9      85.5874
      12833.4      85.3666
      12846.0      85.1371
      12858.5      84.9109
      12871.1      84.6831
      12883.6      84.4597
      12896.2      84.2293
      12908.7      83.9965
      12921.3      83.7776
      12933.8      83.5457
      12946.3      83.3255
      12958.9      83.0913
      12971.4      82.8688
      12984.0      82.6379
      12996.5      82.4157
      13009.1      82.1928
      13021.6      81.9811
      13034.2      81.7676
      13046.7      81.5545
      13059.3      81.3350
      13071.8      81.1240
      13084.4      80.9075
      13096.9      80.6960
      13109.5      80.4807
      13122.0      80.2664
      13134.6      80.0498
      13147.1      79.8412
      13159.7      79.6206
      13172.2      79.4101
      13184.7      79.1958
      13197.3      78.9828
      13209.8      78.7714
      13222.4      78.5719
      13234.9      78.3720
      13247.5      78.1720
      13260.0      77.9636
      13272.6      77.7618
      13285.1      77.5596
      13297.7      77.3584
      13310.2      77.1551
      13322.8      76.9528
      13335.3      76.7503
      13347.9      76.5471
      13360.4      76.3443
      13373.0      76.1442
      13385.5      75.9379
      13398.0      75.7403
      13410.6      75.5462
      13423.1      75.3495
      13435.7      75.1595
      13448.2      74.9675
      13460.8      74.7782
      13473.3      74.5816
      13485.9      74.3921
      13498.4      74.1968
      13511.0      74.0077
      13523.5      73.8157
      13536.1      73.6265
      13548.6      73.4310
      13561.2      73.2416
      13573.7      73.0460
      13586.3      72.8587
      13598.8      72.6629
      13611.4      72.4795
      13623.9      72.3001
      13636.4      72.1162
      13649.0      71.9357
      13661.5      71.7532
      13674.1      71.5745
      13686.6      71.3872
      13699.2      71.2082
      13711.7      71.0273
      13724.3      70.8408
      13736.8      70.6628
      13749.4      70.4837
      13761.9      70.2991
      13774.5      70.1155
      13787.0      69.9401
      13799.6      69.7525
      13812.1      69.5820
      13824.7      69.4103
      13837.2      69.2342
      13849.7      69.0702
      13862.3      68.8900
      13874.8      68.7231
      13887.4      68.5503
      13899.9      68.3765
      13912.5      68.2045
      13925.0      68.0387
      13937.6      67.8620
      13950.1      67.6900
      13962.7      67.5170
      13975.2      67.3483
      13987.8      67.1724
      14000.3      67.0041
      14012.9      66.8419
      14025.4      66.6751
      14038.0      66.5109
      14050.5      66.3487
      14063.1      66.1832
      14075.6      66.0254
      14088.1      65.8578
      14100.7      65.6950
      14113.2      65.5295
      14125.8      65.3684
      14138.3      65.2075
      14150.9      65.0396
      14163.4      64.8823
      14176.0      64.7110
      14188.5      64.5524
      14201.1      64.3893
      14213.6      64.2310
      14226.2      64.0825
      14238.7      63.9244
      14251.3      63.7653
      14263.8      63.6146
      14276.4      63.4626
      14288.9      63.3041
      14301.5      63.1466
      14314.0      62.9973
      14326.5      62.8403
      14339.1      62.6839
      14351.6      62.5317
      14364.2      62.3763
      14376.7      62.2191
      14389.3      62.0689
      14401.8      61.9112
      14414.4      61.7656
      14426.9      61.6158
      14439.5      61.4716
      14452.0      61.3248
      14464.6      61.1737
      14477.1      61.0292
      14489.7      60.8836
      14502.2      60.7330
      14514.8      60.5870
      14527.3      60.4429
      14539.8      60.2911
      14552.4      60.1470
      14564.9      59.9964
      14577.5      59.8494
      14590.0      59.7049
      14602.6      59.5582
      14615.1      59.4200
      14627.7      59.2775
      14640.2      59.1376
      14652.8      59.0002
      14665.3      58.8575
      14677.9      58.7190
      14690.4      58.5768
      14703.0      58.4393
      14715.5      58.3018
      14728.1      58.1602
      14740.6      58.0211
      14753.2      57.8784
      14765.7      57.7425
      14778.2      57.5995
      14790.8      57.4595
      14803.3      57.3252
      14815.9      57.1877
      14828.4      57.0566
      14841.0      56.9252
      14853.5      56.7882
      14866.1      56.6573
      14878.6      56.5222
      14891.2      56.3935
      14903.7      56.2583
      14916.3      56.1244
      14928.8      55.9918
      14941.4      55.8575
      14953.9      55.7281
      14966.5      55.5950
      14979.0      55.4577
      14991.6      55.3284
      15004.1      55.1945
      15016.6      55.0693
      15029.2      54.9428
      15041.7      54.8184
      15054.3      54.6876
      15066.8      54.5611
      15079.4      54.4397
      15091.9      54.3106
      15104.5      54.1819
      15117.0      54.0571
      15129.6      53.9299
      15142.1      53.8056
      15154.7      53.6745
      15167.2      53.5522
      15179.8      53.4243
      15192.3      53.2985
      15204.9      53.1746
      15217.4      53.0517
      15229.9      52.9333
      15242.5      52.8145
      15255.0      52.6927
      15267.6      52.5727
      15280.1      52.4499
      15292.7      52.3352
      15305.2      52.2085
      15317.8      52.0948
      15330.3      51.9694
      15342.9      51.8526
      15355.4      51.7307
      15368.0      51.6076
      15380.5      51.4930
      15393.1      51.3685
      15405.6      51.2542
      15418.2      51.1355
      15430.7      51.0228
      15443.3      50.9073
      15455.8      50.7931
      15468.3      50.6793
      15480.9      50.5630
      15493.4      50.4527
      15506.0      50.3358
      15518.5      50.2174
      15531.1      50.1071
      15543.6      49.9918
      15556.2      49.8754
      15568.7      49.7620
      15581.3      49.6461
      15593.8      49.5324
      15606.4      49.4211
      15618.9      49.3103
      15631.5      49.2025
      15644.0      49.0923
      15656.6      48.9830
      15669.1      48.8746
      15681.7      48.7635
      15694.2      48.6551
      15706.7      48.5441
      15719.3      48.4367
      15731.8      48.3272
      15744.4      48.2166
      15756.9      48.1089
      15769.5      47.9963
      15782.0      47.8906
      15794.6      47.7814
      15807.1      47.6728
      15819.7      47.5681
      15832.2      47.4661
      15844.8      47.3585
      15857.3      47.2573
      15869.9      47.1508
      15882.4      47.0476
      15895.0      46.9414
      15907.5      46.8399
      15920.0      46.7342
      15932.6      46.6316
      15945.1      46.5236
      15957.7      46.4215
      15970.2      46.3187
      15982.8      46.2128
      15995.3      46.1096
      16007.9      46.0075
      16020.4      45.9051
      16033.0      45.8098
      16045.5      45.7080
      16058.1      45.6109
      16070.6      45.5097
      16083.2      45.4102
      16095.7      45.3097
      16108.3      45.2126
      16120.8      45.1107
      16133.3      45.0140
      16145.9      44.9142
      16158.4      44.8140
      16171.0      44.7130
      16183.5      44.6155
      16196.1      44.5127
      16208.6      44.4194
      16221.2      44.3241
      16233.7      44.2283
      16246.3      44.1342
      16258.8      44.0390
      16271.4      43.9423
      16283.9      43.8480
      16296.5      43.7529
      16309.0      43.6598
      16321.6      43.5623
      16334.1      43.4679
      16346.7      43.3732
      16359.2      43.2780
      16371.7      43.1816
      16384.3      43.0859
      16396.8      42.9959
      16409.4      42.9024
      16421.9      42.8072
      16434.5      42.7166
      16447.0      42.6304
      16459.6      42.5374
      16472.1      42.4497
      16484.7      42.3557
      16497.2      42.2620
      16509.8      42.1775
      16522.3      42.0794
      16534.9      41.9948
      16547.4      41.9020
      16560.0      41.8126
      16572.5      41.7159
      16585.1      41.6359
      16597.6      41.5354
      16610.1      41.4542
      16622.7      41.3651
      16635.2      41.2755
      16647.8      41.1916
      16660.3      41.1037
      16672.9      41.0212
      16685.4      40.9295
      16698.0      40.8468
      16710.5      40.7597
      16723.1      40.6724
      16735.6      40.5855
      16748.2      40.4952
      16760.7      40.4138
      16773.3      40.3272
      16785.8      40.2362
      16798.4      40.1504
      16810.9      40.0711
      16823.4      39.9869
      16836.0      39.9044
      16848.5      39.8199
      16861.1      39.7337
      16873.6      39.6582
      16886.2      39.5695
      16898.7      39.4880
      16911.3      39.4028
      16923.8      39.3249
      16936.4      39.2376
      16948.9      39.1556
      16961.5      39.0781
      16974.0      38.9865
      16986.6      38.9077
      16999.1      38.8226
      17011.7      38.7456
      17024.2      38.6685
      17036.8      38.5849
      17049.3      38.5051
      17061.8      38.4308
      17074.4      38.3456
      17086.9      38.2713
      17099.5      38.1928
      17112.0      38.1106
      17124.6      38.0290
      17137.1      37.9517
      17149.7      37.8738
      17162.2      37.7953
      17174.8      37.7137
      17187.3      37.6353
      17199.9      37.5567
      17212.4      37.4781
      17225.0      37.4045
      17237.5      37.3252
      17250.1      37.2518
      17262.6      37.1794
      17275.1      37.0974
      17287.7      37.0262
      17300.2      36.9439
      17312.8      36.8731
      17325.3      36.7969
      17337.9      36.7228
      17350.4      36.6385
      17363.0      36.5685
      17375.5      36.4922
      17388.1      36.4188
      17400.6      36.3385
      17413.2      36.2684
      17425.7      36.1966
      17438.3      36.1201
      17450.8      36.0523
      17463.4      35.9784
      17475.9      35.9049
      17488.5      35.8342
      17501.0      35.7567
      17513.5      35.6898
      17526.1      35.6154
      17538.6      35.5429
      17551.2      35.4692
      17563.7      35.3985
      17576.3      35.3285
      17588.8      35.2529
      17601.4      35.1791
      17613.9      35.1110
      17626.5      35.0412
      17639.0      34.9733
      17651.6      34.8993
      17664.1      34.8316
      17676.7      34.7609
      17689.2      34.6954
      17701.8      34.6199
      17714.3      34.5539
      17726.9      34.4845
      17739.4      34.4111
      17751.9      34.3433
      17764.5      34.2740
      17777.0      34.2051
      17789.6      34.1314
      17802.1      34.0641
      17814.7      33.9975
      17827.2      33.9306
      17839.8      33.8664
      17852.3      33.8000
      17864.9      33.7318
      17877.4      33.6606
      17890.0      33.6006
      17902.5      33.5298
      17915.1      33.4668
      17927.6      33.3962
      17940.2      33.3306
      17952.7      33.2651
      17965.2      33.1960
      17977.8      33.1338
      17990.3      33.0649
      18002.9      32.9993
      18015.4      32.9362
      18028.0      32.8664
      18040.5      32.8081
      18053.1      32.7413
      18065.6      32.6806
      18078.2      32.6124
      18090.7      32.5506
      18103.3      32.4848
      18115.8      32.4216
      18128.4      32.3572
      18140.9      32.2945
      18153.5      32.2297
      18166.0      32.1655
      18178.6      32.1008
      18191.1      32.0329
      18203.6      31.9750
      18216.2      31.9152
      18228.7      31.8498
      18241.3      31.7919
      18253.8      31.7251
      18266.4      31.6669
      18278.9      31.6081
      18291.5      31.5436
      18304.0      31.4858
      18316.6      31.4202
      18329.1      31.3621
      18341.7      31.3008
      18354.2      31.2377
      18366.8      31.1791
      18379.3      31.1142
      18391.9      31.0544
      18404.4      30.9954
      18416.9      30.9337
      18429.5      30.8782
      18442.0      30.8175
      18454.6      30.7585
      18467.1      30.6974
      18479.7      30.6440
      18492.2      30.5813
      18504.8      30.5208
      18517.3      30.4661
      18529.9      30.4051
      18542.4      30.3433
      18555.0      30.2872
      18567.5      30.2258
      18580.1      30.1714
      18592.6      30.1083
      18605.2      30.0496
      18617.7      29.9966
      18630.3      29.9413
      18642.8      29.8779
      18655.3      29.8251
      18667.9      29.7704
      18680.4      29.7121
      18693.0      29.6554
      18705.5      29.5988
      18718.1      29.5423
      18730.6      29.4873
      18743.2      29.4273
      18755.7      29.3717
      18768.3      29.3161
      18780.8      29.2614
      18793.4      29.1998
      18805.9      29.1491
      18818.5      29.0918
      18831.0      29.0387
      18843.6      28.9858
      18856.1      28.9282
      18868.7      28.8772
      18881.2      28.8192
      18893.7      28.7694
      18906.3      28.7094
      18918.8      28.6585
      18931.4      28.6053
      18943.9      28.5496
      18956.5      28.4968
      18969.0      28.4404
      18981.6      28.3856
      18994.1      28.3305
      19006.7      28.2803
      19019.2      28.2290
      19031.8      28.1718
      19044.3      28.1256
      19056.9      28.0693
      19069.4      28.0182
      19082.0      27.9660
      19094.5      27.9138
      19107.0      27.8633
      19119.6      27.8098
      19132.1      27.7551
      19144.7      27.7050
      19157.2      27.6547
      19169.8      27.5964
      19182.3      27.5484
      19194.9      27.4970
      19207.4      27.4448
      19220.0      27.3949
      19232.5      27.3463
      19245.1      27.2945
      19257.6      27.2443
      19270.2      27.1953
      19282.7      27.1414
      19295.3      27.0967
      19307.8      27.0410
      19320.4      26.9958
      19332.9      26.9418
      19345.4      26.8920
      19358.0      26.8432
      19370.5      26.7926
      19383.1      26.7432
      19395.6      26.6899
      19408.2      26.6448
      19420.7      26.5969
      19433.3      26.5453
      19445.8      26.4968
      19458.4      26.4517
      19470.9      26.4022
      19483.5      26.3535
      19496.0      26.3065
      19508.6      26.2589
      19521.1      26.2087
      19533.7      26.1596
      19546.2      26.1124
      19558.7      26.0650
      19571.3      26.0165
      19583.8      25.9684
      19596.4      25.9191
      19608.9      25.8730
      19621.5      25.8282
      19634.0      25.7780
      19646.6      25.7334
      19659.1      25.6862
      19671.7      25.6416
      19684.2      25.5934
      19696.8      25.5490
      19709.3      25.5009
      19721.9      25.4550
      19734.4      25.4098
      19747.0      25.3591
      19759.5      25.3162
      19772.1      25.2683
      19784.6      25.2245
      19797.1      25.1772
      19809.7      25.1301
      19822.2      25.0870
      19834.8      25.0438
      19847.3      24.9974
      19859.9      24.9514
      19872.4      24.9076
      19885.0      24.8630
      19897.5      24.8177
      19910.1      24.7769
      19922.6      24.7287
      19935.2      24.6834
      19947.7      24.6400
      19960.3      24.5958
      19972.8      24.5494
      19985.4      24.5057
      19997.9      24.4627
      20010.5      24.4170
      20023.0      24.3742
      20035.5      24.3347
      20048.1      24.2879
      20060.6      24.2468
      20073.2      24.2027
      20085.7      24.1600
      20098.3      24.1169
      20110.8      24.0728
      20123.4      24.0308
      20135.9      23.9893
      20148.5      23.9447
      20161.0      23.9016
      20173.6      23.8608
      20186.1      23.8145
      20198.7      23.7721
      20211.2      23.7340
      20223.8      23.6891
      20236.3      23.6477
      20248.8      23.6084
      20261.4      23.5639
      20273.9      23.5244
      20286.5      23.4825
      20299.0      23.4439
      20311.6      23.3988
      20324.1      23.3570
      20336.7      23.3186
      20349.2      23.2764
      20361.8      23.2331
      20374.3      23.1929
      20386.9      23.1521
      20399.4      23.1111
      20412.0      23.0714
      20424.5      23.0294
      20437.1      22.9912
      20449.6      22.9510
      20462.1      22.9120
      20474.7      22.8698
      20487.2      22.8309
      20499.8      22.7913
      20512.3      22.7514
      20524.9      22.7101
      20537.4      22.6700
      20550.0      22.6320
      20562.5      22.5926
      20575.1      22.5508
      20587.6      22.5109
      20600.2      22.4745
      20612.7      22.4308
      20625.3      22.3945
      20637.8      22.3568
      20650.4      22.3193
      20662.9      22.2806
      20675.5      22.2399
      20688.0      22.2019
      20700.5      22.1660
      20713.1      22.1263
      20725.6      22.0870
      20738.2      22.0473
      20750.7      22.0088
      20763.3      21.9718
      20775.8      21.9350
      20788.4      21.8962
      20800.9      21.8553
      20813.5      21.8196
      20826.0      21.7830
      20838.6      21.7443
      20851.1      21.7097
      20863.7      21.6701
      20876.2      21.6348
      20888.8      21.5980
      20901.3      21.5610
      20913.9      21.5213
      20926.4      21.4878
      20938.9      21.4468
      20951.5      21.4118
      20964.0      21.3765
      20976.6      21.3390
      20989.1      21.3013
      21001.7      21.2629
      21014.2      21.2270
      21026.8      21.1935
      21039.3      21.1547
      21051.9      21.1221
      21064.4      21.0856
      21077.0      21.0481
      21089.5      21.0133
      21102.1      20.9793
      21114.6      20.9425
      21127.2      20.9051
      21139.7      20.8704
      21152.3      20.8363
      21164.8      20.7995
      21177.3      20.7636
      21189.9      20.7284
      21202.4      20.6903
      21215.0      20.6582
      21227.5      20.6240
      21240.1      20.5905
      21252.6      20.5530
      21265.2      20.5197
      21277.7      20.4853
      21290.3      20.4504
      21302.8      20.4185
      21315.4      20.3809
      21327.9      20.3478
      21340.5      20.3145
      21353.0      20.2771
      21365.6      20.2433
      21378.1      20.2094
      21390.6      20.1772
      21403.2      20.1405
      21415.7      20.1069
      21428.3      20.0755
      21440.8      20.0427
      21453.4      20.0080
      21465.9      19.9740
      21478.5      19.9404
      21491.0      19.9074
      21503.6      19.8769
      21516.1      19.8399
      21528.7      19.8086
      21541.2      19.7759
      21553.8      19.7428
      21566.3      19.7085
      21578.9      19.6741
      21591.4      19.6416
      21604.0      19.6102
      21616.5      19.5760
      21629.0      19.5458
      21641.6      19.5118
      21654.1      19.4806
      21666.7      19.4499
      21679.2      19.4165
      21691.8      19.3827
      21704.3      19.3526
      21716.9      19.3199
      21729.4      19.2874
      21742.0      19.2565
      21754.5      19.2232
      21767.1      19.1925
      21779.6      19.1590
      21792.2      19.1266
      21804.7      19.0964
      21817.3      19.0658
      21829.8      19.0338
      21842.4      19.0028
      21854.9      18.9708
      21867.4      18.9428
      21880.0      18.9090
      21892.5      18.8787
      21905.1      18.8476
      21917.6      18.8156
      21930.2      18.7871
      21942.7      18.7545
      21955.3      18.7240
      21967.8      18.6918
      21980.4      18.6629
      21992.9      18.6309
      22005.5      18.6002
      22018.0      18.5709
      22030.6      18.5396
      22043.1      18.5098
      22055.7      18.4805
      22068.2      18.4507
      22080.7      18.4214
      22093.3      18.3909
      22105.8      18.3619
      22118.4      18.3298
      22130.9      18.3021
      22143.5      18.2693
      22156.0      18.2419
      22168.6      18.2095
      22181.1      18.1828
      22193.7      18.1495
      22206.2      18.1219
      22218.8      18.0935
      22231.3      18.0627
      22243.9      18.0365
      22256.4      18.0059
      22269.0      17.9768
      22281.5      17.9467
      22294.1      17.9185
      22306.6      17.8898
      22319.1      17.8601
      22331.7      17.8337
      22344.2      17.8035
      22356.8      17.7736
      22369.3      17.7452
      22381.9      17.7153
      22394.4      17.6884
      22407.0      17.6580
      22419.5      17.6309
      22432.1      17.6041
      22444.6      17.5743
      22457.2      17.5494
      22469.7      17.5192
      22482.3      17.4901
      22494.8      17.4643
      22507.4      17.4347
      22519.9      17.4074
      22532.5      17.3806
      22545.0      17.3506
      22557.5      17.3237
      22570.1      17.2946
      22582.6      17.2694
      22595.2      17.2388
      22607.7      17.2128
      22620.3      17.1859
      22632.8      17.1600
      22645.4      17.1306
      22657.9      17.1028
      22670.5      17.0780
      22683.0      17.0511
      22695.6      17.0241
      22708.1      16.9955
      22720.7      16.9702
      22733.2      16.9406
      22745.8      16.9149
      22758.3      16.8895
      22770.8      16.8605
      22783.4      16.8345
      22795.9      16.8072
      22808.5      16.7818
      22821.0      16.7547
      22833.6      16.7273
      22846.1      16.7010
      22858.7      16.6762
      22871.2      16.6504
      22883.8      16.6234
      22896.3      16.5967
      22908.9      16.5717
      22921.4      16.5469
      22934.0      16.5185
      22946.5      16.4932
      22959.1      16.4658
      22971.6      16.4410
      22984.2      16.4145
      22996.7      16.3894
      23009.2      16.3630
      23021.8      16.3366
      23034.3      16.3118
      23046.9      16.2870
      23059.4      16.2608
      23072.0      16.2373
      23084.5      16.2113
      23097.1      16.1858
      23109.6      16.1601
      23122.2      16.1371
      23134.7      16.1091
      23147.3      16.0846
      23159.8      16.0611
      23172.4      16.0328
      23184.9      16.0100
      23197.5      15.9849
      23210.0      15.9584
      23222.5      15.9339
      23235.1      15.9115
      23247.6      15.8869
      23260.2      15.8604
      23272.7      15.8367
      23285.3      15.8125
      23297.8      15.7880
      23310.4      15.7630
      23322.9      15.7393
      23335.5      15.7157
      23348.0      15.6886
      23360.6      15.6652
      23373.1      15.6426
      23385.7      15.6161
      23398.2      15.5927
      23410.8      15.5692
      23423.3      15.5441
      23435.8      15.5222
      23448.4      15.4969
      23460.9      15.4732
      23473.5      15.4511
      23486.0      15.4251
      23498.6      15.4026
      23511.1      15.3789
      23523.7      15.3553
      23536.2      15.3330
      23548.8      15.3067
      23561.3      15.2835
      23573.9      15.2606
      23586.4      15.2370
      23599.0      15.2142
      23611.5      15.1898
      23624.1      15.1683
      23636.6      15.1445
      23649.2      15.1213
      23661.7      15.0978
      23674.2      15.0767
      23686.8      15.0531
      23699.3      15.0306
      23711.9      15.0066
      23724.4      14.9840
      23737.0      14.9605
      23749.5      14.9390
      23762.1      14.9158
      23774.6      14.8911
      23787.2      14.8713
      23799.7      14.8456
      23812.3      14.8252
      23824.8      14.8025
      23837.4      14.7807
      23849.9      14.7573
      23862.5      14.7356
      23875.0      14.7131
      23887.6      14.6929
      23900.1      14.6688
      23912.6      14.6474
      23925.2      14.6242
      23937.7      14.6021
      23950.3      14.5823
      23962.8      14.5575
      23975.4      14.5349
      23987.9      14.5139
      24000.5      14.4928
      24013.0      14.4715
      24025.6      14.4480
      24038.1      14.4281
      24050.7      14.4050
      24063.2      14.3838
      24075.8      14.3643
      24088.3      14.3400
      24100.9      14.3206
      24113.4      14.2985
      24126.0      14.2768
      24138.5      14.2550
      24151.0      14.2347
      24163.6      14.2125
      24176.1      14.1910
      24188.7      14.1696
      24201.2      14.1484
      24213.8      14.1279
      24226.3      14.1051
      24238.9      14.0861
      24251.4      14.0644
      24264.0      14.0448
      24276.5      14.0241
      24289.1      14.0021
      24301.6      13.9800
      24314.2      13.9624
      24326.7      13.9386
      24339.3      13.9201
      24351.8      13.8995
      24364.4      13.8764
      24376.9      13.8558
      24389.4      13.8367
      24402.0      13.8156
      24414.5      13.7947
      24427.1      13.7742
      24439.6      13.7548
      24452.2      13.7358
      24464.7      13.7146
      24477.3      13.6937
      24489.8      13.6738
      24502.4      13.6536
      24514.9      13.6350
      24527.5      13.6130
      24540.0      13.5933
      24552.6      13.5733
      24565.1      13.5527
      24577.7      13.5325
      24590.2      13.5141
      24602.7      13.4911
      24615.3      13.4734
      24627.8      13.4528
      24640.4      13.4347
      24652.9      13.4138
      24665.5      13.3952
      24678.0      13.3752
      24690.6      13.3563
      24703.1      13.3360
      24715.7      13.3165
      24728.2      13.2975
      24740.8      13.2775
      24753.3      13.2579
      24765.9      13.2384
      24778.4      13.2188
      24791.0      13.1993
      24803.5      13.1799
      24816.0      13.1609
      24828.6      13.1413
      24841.1      13.1238
      24853.7      13.1034
      24866.2      13.0859
      24878.8      13.0668
      24891.3      13.0472
      24903.9      13.0280
      24916.4      13.0096
      24929.0      12.9894
      24941.5      12.9727
      24954.1      12.9512
      24966.6      12.9345
      24979.2      12.9153
      24991.7      12.8957
      25004.3      12.8765
      25016.8      12.8570
      25029.4      12.8415
      25041.9      12.8222
      25054.4      12.8017
      25067.0      12.7860
      25079.5      12.7662
      25092.1      12.7492
      25104.6      12.7292
      25117.2      12.7122
      25129.7      12.6922
      25142.3      12.6759
      25154.8      12.6555
      25167.4      12.6380
      25179.9      12.6195
      25192.5      12.6020
      25205.0      12.5836
      25217.6      12.5649
      25230.1      12.5480
      25242.7      12.5303
      25255.2      12.5118
      25267.8      12.4930
      25280.3      12.4768
      25292.8      12.4585
      25305.4      12.4400
      25317.9      12.4224
      25330.5      12.4058
      25343.0      12.3879
      25355.6      12.3686
      25368.1      12.3504
      25380.7      12.3345
      25393.2      12.3161
      25405.8      12.2971
      25418.3      12.2821
      25430.9      12.2633
      25443.4      12.2465
      25456.0      12.2292
      25468.5      12.2104
      25481.1      12.1945
      25493.6      12.1773
      25506.1      12.1601
      25518.7      12.1433
      25531.2      12.1240
      25543.8      12.1081
      25556.3      12.0915
      25568.9      12.0724
      25581.4      12.0563
      25594.0      12.0435
